# dimensionless total lensed [l(l+1)/2pi] C_l's
# for l=2 to 2500, i.e. number of multipoles equal to 2499
#
# -> if you prefer output in CAMB/HealPix/LensPix units/order, set 'format' to 'camb' in input file
# -> if you don't want to see such a header, set 'headers' to 'no' in input file
# -> for CMB lensing (phi), these are C_l^phi-phi for the lensing potential.
#    Remember the conversion factors:
#    C_l^dd (deflection) = l(l+1) C_l^phi-phi
#    C_l^gg (shear/convergence) = 1/4 (l(l+1))^2 C_l^phi-phi
#
# 1:l     2:TT                     3:EE                     4:TE                     5:BB                     6:phiphi                 7:TPhi                   8:Ephi               
    2       1.056425571957e-09       5.962022961054e-14       5.423082117391e-12       2.938884472768e-19       1.061023074311e-08       3.942766521832e-10      -6.212251272690e-12 
    3       1.018296137888e-09       1.037497049608e-13       6.322509911763e-12       5.899652625610e-19       6.609677396828e-09       3.164162680770e-10      -5.506556240960e-12 
    4       9.812391744714e-10       1.275416092124e-13       6.339503111035e-12       9.880388578459e-19       4.590331816945e-09       2.550823249681e-10      -4.489434224178e-12 
    5       9.488440426403e-10       1.265649968259e-13       5.871821662984e-12       1.490753986525e-18       3.416093778043e-09       2.092619779452e-10      -3.452133396140e-12 
    6       9.213616531632e-10       1.066312969559e-13       5.166660023755e-12       2.101191566356e-18       2.660224205868e-09       1.745872825962e-10      -2.492501441543e-12 
    7       8.980395105309e-10       7.816781015277e-14       4.389619259940e-12       2.822733108095e-18       2.138760878585e-09       1.476870347022e-10      -1.663287892284e-12 
    8       8.779512460128e-10       5.060330022680e-14       3.635511511958e-12       3.658911674843e-18       1.761359707356e-09       1.263694778240e-10      -9.892669944742e-13 
    9       8.604775321555e-10       2.952560298642e-14       2.954809206340e-12       4.613255837645e-18       1.478743997664e-09       1.091948822806e-10      -4.766658905587e-13 
   10       8.450597450369e-10       1.637266363718e-14       2.370073289819e-12       5.689133414980e-18       1.261256328306e-09       9.522273187282e-11      -1.177224051575e-13 
   11       8.312543597933e-10       9.724748378158e-15       1.887789852560e-12       6.889601817450e-18       1.061269264029e-09       8.451161550357e-11       1.030138456631e-13 
   12       8.187413820598e-10       7.048224934710e-15       1.505724525960e-12       8.217271561938e-18       9.255811989529e-10       7.463274664775e-11       2.153694159097e-13 
   13       8.071593475380e-10       6.064586914363e-15       1.216504240163e-12       9.674188981862e-18       8.143915350905e-10       6.662536071789e-11       2.447425632703e-13 
   14       7.963246168691e-10       5.399073441081e-15       1.008990379525e-12       1.126174336361e-17       7.220316658081e-10       5.954364882295e-11       2.169191016015e-13 
   15       7.863096066134e-10       4.579248833592e-15       8.692625588460e-13       1.298060271653e-17       6.444129563378e-10       5.374616113424e-11       1.571648207734e-13 
   16       7.769503423284e-10       3.681294571862e-15       7.825640909564e-13       1.483068117717e-17       5.785194857371e-10       4.888845832121e-11       8.538348231991e-14 
   17       7.680393923472e-10       2.935521606444e-15       7.354601217562e-13       1.681113970792e-17       5.220757066011e-10       4.470585314036e-11       1.665619388039e-14 
   18       7.595596626453e-10       2.483583664984e-15       7.161000832680e-13       1.892040359453e-17       4.731521604726e-10       4.096125000967e-11      -3.895047926761e-14 
   19       7.516449877240e-10       2.297702983648e-15       7.174453263947e-13       2.115631270654e-17       4.309537265080e-10       3.763438127270e-11      -7.705056832796e-14 
   20       7.439816930073e-10       2.271506863050e-15       7.313041033258e-13       2.351603556326e-17       3.938338718322e-10       3.470460779814e-11      -9.609870957947e-14 
   21       7.366661059528e-10       2.318757238379e-15       7.541565745636e-13       2.599643332536e-17       3.611971103843e-10       3.212460858203e-11      -9.808627269686e-14 
   22       7.296518968328e-10       2.358933670952e-15       7.832629146688e-13       2.859395232712e-17       3.322513402406e-10       2.979375237311e-11      -8.758013216289e-14 
   23       7.229582761801e-10       2.405305358851e-15       8.172427319572e-13       3.130503726916e-17       3.065903043704e-10       2.766673795966e-11      -6.919707682456e-14 
   24       7.164501019829e-10       2.503624804160e-15       8.549149672112e-13       3.412602386701e-17       2.836124074558e-10       2.569947196950e-11      -4.829084171357e-14 
   25       7.101984345250e-10       2.682177969132e-15       8.960223246409e-13       3.705359870929e-17       2.630418015571e-10       2.391610247009e-11      -2.855772232470e-14 
   26       7.041971390689e-10       2.958622581302e-15       9.404247386110e-13       4.008466850135e-17       2.445007895333e-10       2.234025320386e-11      -1.321081929334e-14 
   27       6.984183193424e-10       3.319368724462e-15       9.877895852772e-13       4.321675128060e-17       2.277627990928e-10       2.094054451662e-11      -3.556845272852e-15 
   28       6.927490213598e-10       3.739758607114e-15       1.037580183011e-12       4.644789349573e-17       2.125350432652e-10       1.966026250207e-11      -7.934901364987e-18 
   29       6.872601263720e-10       4.211847867326e-15       1.089220998186e-12       4.977706375922e-17       1.987371549445e-10       1.848999396152e-11      -1.815437387903e-15 
   30       6.819784284711e-10       4.731049354241e-15       1.141948422232e-12       5.320397351917e-17       1.862183111828e-10       1.742443235825e-11      -7.461119413444e-15 
   31       6.768405869081e-10       5.292096046100e-15       1.194846507612e-12       5.672906804380e-17       1.747198987134e-10       1.644850100560e-11      -1.504130385790e-14 
   32       6.718845554436e-10       5.894571406866e-15       1.247216082775e-12       6.035367157675e-17       1.641808563500e-10       1.555344909336e-11      -2.310767803569e-14 
   33       6.671077680725e-10       6.539370776308e-15       1.298322139772e-12       6.408003041334e-17       1.545251799888e-10       1.472480394333e-11      -3.008681350295e-14 
   34       6.624489973118e-10       7.227180350553e-15       1.347427371893e-12       6.791122927559e-17       1.456159555063e-10       1.394393843508e-11      -3.442488130247e-14 
   35       6.579378132702e-10       7.958186780981e-15       1.394275311750e-12       7.185075240549e-17       1.374064593939e-10       1.321162605072e-11      -3.593569699441e-14 
   36       6.535832489854e-10       8.732240888650e-15       1.438776487421e-12       7.590288672304e-17       1.298296908781e-10       1.253181058030e-11      -3.492885477720e-14 
   37       6.493552087911e-10       9.549810864331e-15       1.480912661624e-12       8.007250685941e-17       1.227857122353e-10       1.190526566922e-11      -3.186845141849e-14 
   38       6.452805193155e-10       1.041504903168e-14       1.520832486041e-12       8.436371488014e-17       1.162556227988e-10       1.133038500711e-11      -2.737802550528e-14 
   39       6.413690378311e-10       1.133379361315e-14       1.558796143140e-12       8.878082516274e-17       1.102180849594e-10       1.080205355911e-11      -2.225813596622e-14 
   40       6.375817852815e-10       1.231282300596e-14       1.595157331478e-12       9.332876934711e-17       1.046146765721e-10       1.031099333113e-11      -1.750081506097e-14 
   41       6.338585742987e-10       1.335848737527e-14       1.630269722991e-12       9.801251956122e-17       9.937009591880e-11       9.846705259124e-12      -1.406345504138e-14 
   42       6.302232702521e-10       1.447192729499e-14       1.664155508431e-12       1.028350561927e-16       9.446845171798e-11       9.408277549528e-12      -1.207248526142e-14 
   43       6.267047021377e-10       1.565239690666e-14       1.696738896743e-12       1.077987918336e-16       8.989637158674e-11       8.996514064881e-12      -1.138108916894e-14 
   44       6.233046512244e-10       1.689851741626e-14       1.727935341382e-12       1.129061126168e-16       8.562012126004e-11       8.610833035556e-12      -1.178113824592e-14 
   45       6.200097239162e-10       1.820873584893e-14       1.757636154432e-12       1.181588707567e-16       8.159755999327e-11       8.249700866473e-12      -1.300959549749e-14 
   46       6.168372874023e-10       1.958295874731e-14       1.785659102971e-12       1.235567059847e-16       7.782208313677e-11       7.912370076398e-12      -1.477985003685e-14 
   47       6.137988750004e-10       2.102133911372e-14       1.811781426659e-12       1.290982044396e-16       7.428906338762e-11       7.597457470565e-12      -1.675264642660e-14 
   48       6.108852195540e-10       2.252380937887e-14       1.835751255856e-12       1.347813139679e-16       7.098260219016e-11       7.302350367954e-12      -1.852284393659e-14 
   49       6.080645039737e-10       2.409007027563e-14       1.857285830071e-12       1.406033050106e-16       6.787469289377e-11       7.023118861963e-12      -1.961584963971e-14 
   50       6.052986472740e-10       2.571989798455e-14       1.876136071330e-12       1.465607441717e-16       6.493360622233e-11       6.755644737510e-12      -1.962252677912e-14 
   51       6.026014329602e-10       2.741418966987e-14       1.892305100976e-12       1.526494972142e-16       6.215367150648e-11       6.499573031068e-12      -1.865536576510e-14 
   52       5.999931348886e-10       2.917418251008e-14       1.905885957260e-12       1.588646592658e-16       5.953213269729e-11       6.255281414122e-12      -1.700997002615e-14 
   53       5.974829814447e-10       3.100116399025e-14       1.917001733706e-12       1.652005046036e-16       5.706023928894e-11       6.022727521620e-12      -1.504028251417e-14 
   54       5.950682548137e-10       3.289647575328e-14       1.925806920140e-12       1.716504481362e-16       5.472284346779e-11       5.801418467066e-12      -1.316153528363e-14 
   55       5.927408263852e-10       3.486136714610e-14       1.932446599903e-12       1.782078269358e-16       5.250299142965e-11       5.590662095583e-12      -1.175751074048e-14 
   56       5.905107276658e-10       3.689650443050e-14       1.936919099401e-12       1.848685604283e-16       5.039795588272e-11       5.390463673076e-12      -1.086858962534e-14 
   57       5.883868571885e-10       3.900234639549e-14       1.939181566677e-12       1.916290835855e-16       4.840648073740e-11       5.200798557199e-12      -1.043137387183e-14 
   58       5.863694596928e-10       4.117928201915e-14       1.939188831375e-12       1.984855783505e-16       4.652393214821e-11       5.021330892463e-12      -1.036682365372e-14 
   59       5.844495151148e-10       4.342762846382e-14       1.936893103815e-12       2.054339670711e-16       4.474209024085e-11       4.851394102133e-12      -1.057947884736e-14 
   60       5.826081275772e-10       4.574762907132e-14       1.932243674044e-12       2.124699059315e-16       4.304894083909e-11       4.689971380122e-12      -1.095668049400e-14 
   61       5.808251367124e-10       4.813936270042e-14       1.925190106390e-12       2.195898036942e-16       4.143199464829e-11       4.535973880197e-12      -1.138938801331e-14 
   62       5.791085926244e-10       5.060245249423e-14       1.915693341811e-12       2.267941599905e-16       3.988958658640e-11       4.389192384339e-12      -1.184185237832e-14 
   63       5.774708427595e-10       5.313628788749e-14       1.903716564910e-12       2.340849681012e-16       3.842175466737e-11       4.249525601230e-12      -1.229627147586e-14 
   64       5.759195812936e-10       5.574010277353e-14       1.889221742085e-12       2.414647812197e-16       3.702684190752e-11       4.116691455393e-12      -1.273248288873e-14 
   65       5.744575307397e-10       5.841297068644e-14       1.872169431508e-12       2.489367384169e-16       3.570139997610e-11       3.990217024801e-12      -1.312787057487e-14 
   66       5.730821235559e-10       6.115379998325e-14       1.852518593088e-12       2.565045906061e-16       3.444009284574e-11       3.869428478481e-12      -1.345727154663e-14 
   67       5.717851837527e-10       6.396132902608e-14       1.830226398448e-12       2.641727265080e-16       3.323560044296e-11       3.753441014120e-12      -1.369288254998e-14 
   68       5.705576747638e-10       6.683436026964e-14       1.805257156511e-12       2.719457692743e-16       3.208056428314e-11       3.641397803429e-12      -1.381250861912e-14 
   69       5.694057719027e-10       6.977252837254e-14       1.777611615160e-12       2.798272134099e-16       3.097409754128e-11       3.533265543086e-12      -1.382645817612e-14 
   70       5.683374895992e-10       7.277567978564e-14       1.747303282770e-12       2.878205570308e-16       2.991642706739e-11       3.429182767488e-12      -1.375595498006e-14 
   71       5.673577178522e-10       7.584364888686e-14       1.714349880256e-12       2.959297214827e-16       2.890692478268e-11       3.329221476179e-12      -1.362539630925e-14 
   72       5.664680334103e-10       7.897625927336e-14       1.678773384181e-12       3.041590663260e-16       2.794406355471e-11       3.233383439934e-12      -1.346247298767e-14 
   73       5.656665109507e-10       8.217332505390e-14       1.640600069862e-12       3.125134043193e-16       2.702537307262e-11       3.141596506850e-12      -1.329828941141e-14 
   74       5.649475342597e-10       8.543465214104e-14       1.599860554478e-12       3.209980164043e-16       2.614739572219e-11       3.053710908442e-12      -1.316748357505e-14 
   75       5.643016074115e-10       8.876003954351e-14       1.556589840179e-12       3.296186666900e-16       2.530564246109e-11       2.969495565726e-12      -1.310834709812e-14 
   76       5.637192574570e-10       9.214899815888e-14       1.510826182156e-12       3.383800784626e-16       2.449570226322e-11       2.888697452410e-12      -1.315288364653e-14 
   77       5.632039814985e-10       9.559984509368e-14       1.462607359262e-12       3.472810082536e-16       2.371690155822e-11       2.811240347452e-12      -1.329462591142e-14 
   78       5.627613284968e-10       9.911044576874e-14       1.411973798480e-12       3.563182965544e-16       2.296923504282e-11       2.737055783288e-12      -1.351514069880e-14 
   79       5.623949139902e-10       1.026784773393e-13       1.358969708329e-12       3.654883107961e-16       2.225225117315e-11       2.666020842004e-12      -1.379348499755e-14 
   80       5.621063151731e-10       1.063014241945e-13       1.303643097881e-12       3.747869287762e-16       2.156503169469e-11       2.597955754467e-12      -1.410611968446e-14 
   81       5.618949659760e-10       1.099765734568e-13       1.246045795770e-12       3.842095220845e-16       2.090617117240e-11       2.532621499450e-12      -1.442682322930e-14 
   82       5.617580521446e-10       1.137010104811e-13       1.186233469204e-12       3.937509395298e-16       2.027375652068e-11       2.469717402757e-12      -1.472660539989e-14 
   83       5.616904063191e-10       1.174716143545e-13       1.124265642980e-12       4.034054905665e-16       1.966534653342e-11       2.408878736356e-12      -1.497362096716e-14 
   84       5.616869206508e-10       1.212854052465e-13       1.060197845040e-12       4.131673789342e-16       1.907856239646e-11       2.349766450398e-12      -1.513993197501e-14 
   85       5.617504740226e-10       1.251406624806e-13       9.940565054075e-13       4.230321224819e-16       1.851301654237e-11       2.292358720176e-12      -1.522327162821e-14 
   86       5.618851327372e-10       1.290359844254e-13       9.258599115400e-13       4.329953394283e-16       1.796866751500e-11       2.236703554315e-12      -1.522874695397e-14 
   87       5.620936881380e-10       1.329699545155e-13       8.556256001554e-13       4.430523102011e-16       1.744522736669e-11       2.182830119315e-12      -1.516233941114e-14 
   88       5.623775940001e-10       1.369411426649e-13       7.833702439187e-13       4.531979684307e-16       1.694215145689e-11       2.130747887127e-12      -1.503093369725e-14 
   89       5.627369039211e-10       1.409481066792e-13       7.091095381278e-13       4.634268919428e-16       1.645862825087e-11       2.080445782737e-12      -1.484234655547e-14 
   90       5.631702087119e-10       1.449893936689e-13       6.328580873980e-13       4.737332937514e-16       1.599356911831e-11       2.031891331737e-12      -1.460535558160e-14 
   91       5.636745737881e-10       1.490635414623e-13       5.546292923482e-13       4.841110130519e-16       1.554559813196e-11       1.985029807914e-12      -1.432972803112e-14 
   92       5.642454765603e-10       1.531690800178e-13       4.744352362854e-13       4.945535062143e-16       1.511304186630e-11       1.939783380821e-12      -1.402624962609e-14 
   93       5.648786493295e-10       1.573043917956e-13       3.922968472519e-13       5.050556765193e-16       1.469432480453e-11       1.896071642122e-12      -1.370515945196e-14 
   94       5.655760610189e-10       1.614672657793e-13       3.082763785965e-13       5.156196977256e-16       1.428924574433e-11       1.853878567509e-12      -1.337112281244e-14 
   95       5.663407235234e-10       1.656552786789e-13       2.224496267065e-13       5.262500537904e-16       1.389787539561e-11       1.813194096681e-12      -1.302755203481e-14 
   96       5.671748304017e-10       1.698659294799e-13       1.348961182786e-13       5.369517941821e-16       1.352016330563e-11       1.773993100470e-12      -1.267813984647e-14 
   97       5.680797204241e-10       1.740966389207e-13       4.569913805271e-14       5.477305501144e-16       1.315593322535e-11       1.736234821883e-12      -1.232686630262e-14 
   98       5.690558411199e-10       1.783447489685e-13      -4.505424345448e-14       5.585925507784e-16       1.280487847586e-11       1.699862317143e-12      -1.197800571392e-14 
   99       5.701027123247e-10       1.826075222967e-13      -1.372731422162e-13       5.695446395767e-16       1.246655731467e-11       1.664801896730e-12      -1.163613357413e-14 
  100       5.712188897281e-10       1.868821417617e-13      -2.308628329617e-13       5.805942903559e-16       1.214038830213e-11       1.630962566427e-12      -1.130613348772e-14 
  101       5.724019284210e-10       1.911657098794e-13      -3.257247214430e-13       5.917496236403e-16       1.182564566775e-11       1.598235468358e-12      -1.099320409761e-14 
  102       5.736483464429e-10       1.954552483021e-13      -4.217563167012e-13       6.030194228644e-16       1.152145467661e-11       1.566493322032e-12      -1.070286601272e-14 
  103       5.749535883297e-10       1.997476972955e-13      -5.188512033328e-13       6.144131506065e-16       1.122678699571e-11       1.535589865384e-12      -1.044096873569e-14 
  104       5.763134938185e-10       2.040400537360e-13      -6.169065688422e-13       6.259389508117e-16       1.094069294801e-11       1.505392845988e-12      -1.021231795642e-14 
  105       5.777290084305e-10       2.083298074600e-13      -7.158470034860e-13       6.375973131465e-16       1.066304398624e-11       1.475889274174e-12      -1.001633132622e-14 
  106       5.792020442234e-10       2.126145631581e-13      -8.156038787045e-13       6.493865790700e-16       1.039388234499e-11       1.447093412205e-12      -9.850806025258e-15 
  107       5.807340117856e-10       2.168919081051e-13      -9.161081337539e-13       6.613048735894e-16       1.013319110343e-11       1.419014305789e-12      -9.713237858700e-15 
