# dimensionless [l(l+1)/2pi] C_l's for scalar neutrino density isocurvature (NID) mode
# for l=2 to 3000, i.e. number of multipoles equal to 2999
#
# -> if you prefer output in CAMB/HealPix/LensPix units/order, set 'format' to 'camb' in input file
# -> if you don't want to see such a header, set 'headers' to 'no' in input file
# -> for CMB lensing (phi), these are C_l^phi-phi for the lensing potential.
#    Remember the conversion factors:
#    C_l^dd (deflection) = l(l+1) C_l^phi-phi
#    C_l^gg (shear/convergence) = 1/4 (l(l+1))^2 C_l^phi-phi
#
# 1:l     2:TT                     3:EE                     4:TE                     5:BB                     6:phiphi                 7:TPhi                   8:Ephi               
    2       9.584561320385e-10       6.084343658475e-14       5.599557111835e-12       0.000000000000e+00       5.292067376001e-11       1.100283493423e-12      -1.039824607946e-14 
    3       9.328734705264e-10       1.062174100058e-13       6.353793745102e-12       0.000000000000e+00       4.574266379686e-11       1.277745668863e-12      -1.287949005440e-14 
    4       9.164223479131e-10       1.297312947121e-13       6.246446022524e-12       0.000000000000e+00       3.776228686319e-11       1.300512253970e-12      -1.395833007774e-14 
    5       9.055310737167e-10       1.270586529374e-13       5.710399269539e-12       0.000000000000e+00       3.226962580027e-11       1.288728981230e-12      -1.372248446430e-14 
    6       8.982728999301e-10       1.049961311548e-13       4.991086470911e-12       0.000000000000e+00       2.833814358290e-11       1.261299725496e-12      -1.223447556826e-14 
    7       8.934546829103e-10       7.505570721810e-14       4.241428911071e-12       0.000000000000e+00       2.496532397191e-11       1.220345815031e-12      -9.727478329772e-15 
    8       8.902163351486e-10       4.723872515708e-14       3.540883402935e-12       0.000000000000e+00       2.193060752490e-11       1.169925440279e-12      -6.577930563602e-15 
    9       8.880149391790e-10       2.703880205315e-14       2.926653630224e-12       0.000000000000e+00       1.940601160887e-11       1.115255154082e-12      -3.238246284289e-15 
   10       8.865385555440e-10       1.533782195253e-14       2.412628176562e-12       0.000000000000e+00       1.749089631558e-11       1.063068635268e-12      -1.506141793004e-16 
   11       8.856250290485e-10       1.006280101966e-14       2.000177071298e-12       0.000000000000e+00       1.420211523662e-11       9.779069615012e-13       2.205950548860e-15 
   12       8.850821755500e-10       8.245226938545e-15       1.683550207248e-12       0.000000000000e+00       1.301513554038e-11       9.417209893847e-13       3.868819113652e-15 
   13       8.846698549463e-10       7.513903770862e-15       1.453130978869e-12       0.000000000000e+00       1.199701718727e-11       8.929479176137e-13       4.578600081298e-15 
   14       8.842445326689e-10       6.671837578875e-15       1.297451540259e-12       0.000000000000e+00       1.111359399418e-11       8.565430374089e-13       4.431720029878e-15 
   15       8.840031602870e-10       5.525972136888e-15       1.204088830289e-12       0.000000000000e+00       1.033938912431e-11       8.202969786176e-13       3.566936797030e-15 
   16       8.838152406548e-10       4.379412185435e-15       1.160807100803e-12       0.000000000000e+00       9.655024031188e-12       7.855432905397e-13       2.228965996832e-15 
   17       8.834467267249e-10       3.562645557058e-15       1.157108197320e-12       0.000000000000e+00       9.045492928901e-12       7.517559112346e-13       6.994475010476e-16 
   18       8.830168614523e-10       3.197811962907e-15       1.183996876297e-12       0.000000000000e+00       8.496610346234e-12       7.195081137096e-13      -7.418169097456e-16 
   19       8.826778274803e-10       3.194103546579e-15       1.236026204573e-12       0.000000000000e+00       8.006110937706e-12       6.903079738838e-13      -1.901288910351e-15 
   20       8.821109320171e-10       3.366047277424e-15       1.306184602915e-12       0.000000000000e+00       7.559096058636e-12       6.644091752346e-13      -2.620638865278e-15 
   21       8.814565812308e-10       3.611145558066e-15       1.390961167381e-12       0.000000000000e+00       7.152172513561e-12       6.399993808098e-13      -2.857030229910e-15 
   22       8.807357655890e-10       3.857590381823e-15       1.486977338329e-12       0.000000000000e+00       6.779248655523e-12       6.143259917910e-13      -2.640720201533e-15 
   23       8.799641498922e-10       4.144050623763e-15       1.591795304064e-12       0.000000000000e+00       6.437796464050e-12       5.878559217315e-13      -2.067427067690e-15 
   24       8.789908796074e-10       4.545049965142e-15       1.702889580162e-12       0.000000000000e+00       6.122398510053e-12       5.622198673026e-13      -1.286256209324e-15 
   25       8.779218725710e-10       5.085717747749e-15       1.819027775008e-12       0.000000000000e+00       5.831267770632e-12       5.396921791587e-13      -4.483625893749e-16 
   26       8.767984503129e-10       5.767458378038e-15       1.939202549614e-12       0.000000000000e+00       5.561031772906e-12       5.217335607124e-13       2.817944519853e-16 
   27       8.755836700936e-10       6.559798874444e-15       2.062620589223e-12       0.000000000000e+00       5.309931888030e-12       5.045000627969e-13       7.956635276114e-16 
   28       8.741413235815e-10       7.423294566900e-15       2.188512646730e-12       0.000000000000e+00       5.075116451210e-12       4.830207143544e-13       1.013078486533e-15 
   29       8.725538242362e-10       8.357701676085e-15       2.316481873495e-12       0.000000000000e+00       4.856396016509e-12       4.589359915553e-13       9.396863318475e-16 
   30       8.708729309730e-10       9.376147267343e-15       2.446205828602e-12       0.000000000000e+00       4.652442685442e-12       4.365561571496e-13       6.233451209182e-16 
   31       8.690597891843e-10       1.049229579739e-14       2.577339393516e-12       0.000000000000e+00       4.460324150270e-12       4.198828114736e-13       1.342005571839e-16 
   32       8.671588143559e-10       1.171271454679e-14       2.709613617661e-12       0.000000000000e+00       4.279772239325e-12       4.078065208472e-13      -4.442262955649e-16 
   33       8.651657999817e-10       1.304166226890e-14       2.842770844497e-12       0.000000000000e+00       4.110170608747e-12       3.970261663653e-13      -1.006055586939e-15 
   34       8.630172036178e-10       1.448225659739e-14       2.976553766685e-12       0.000000000000e+00       3.949930414623e-12       3.842215667338e-13      -1.440981994394e-15 
   35       8.607522411296e-10       1.603383733617e-14       3.110759947591e-12       0.000000000000e+00       3.798751857710e-12       3.695775852870e-13      -1.711300451909e-15 
   36       8.583925537593e-10       1.769351069211e-14       3.245206477292e-12       0.000000000000e+00       3.655947124148e-12       3.544815663575e-13      -1.801350929876e-15 
   37       8.559182597333e-10       1.945889762178e-14       3.379722004466e-12       0.000000000000e+00       3.520267474246e-12       3.402898754490e-13      -1.706747851223e-15 
   38       8.533583027888e-10       2.133558978714e-14       3.514167127166e-12       0.000000000000e+00       3.391713484033e-12       3.272161430880e-13      -1.466106652672e-15 
   39       8.507196016634e-10       2.333216044770e-14       3.648422053492e-12       0.000000000000e+00       3.270195245310e-12       3.150766336431e-13      -1.141120864202e-15 
   40       8.479560620781e-10       2.545825286014e-14       3.782382356012e-12       0.000000000000e+00       3.154971531296e-12       3.035763705248e-13      -8.094114550114e-16 
   41       8.450009567996e-10       2.772309008307e-14       3.915950828597e-12       0.000000000000e+00       3.044988197586e-12       2.924085486295e-13      -5.491599733169e-16 
   42       8.418895187494e-10       3.013026318973e-14       4.049007590374e-12       0.000000000000e+00       2.940169027658e-12       2.816133247884e-13      -3.844772716508e-16 
   43       8.386673110038e-10       3.268135690555e-14       4.181431844855e-12       0.000000000000e+00       2.840444869658e-12       2.713206799822e-13      -3.240109074047e-16 
   44       8.353533032494e-10       3.537731842021e-14       4.313110447808e-12       0.000000000000e+00       2.745360348896e-12       2.616505720063e-13      -3.757420529487e-16 
   45       8.319491919734e-10       3.821892017605e-14       4.443925925886e-12       0.000000000000e+00       2.654291975430e-12       2.526879748680e-13      -5.405329149915e-16 
   46       8.284771102899e-10       4.120841101616e-14       4.573715510832e-12       0.000000000000e+00       2.567256106981e-12       2.444027515401e-13      -7.906741310563e-16 
   47       8.249485528718e-10       4.434828807055e-14       4.702300399687e-12       0.000000000000e+00       2.484287758690e-12       2.367031892905e-13      -1.084775535595e-15 
   48       8.213513267866e-10       4.764082318738e-14       4.829496611440e-12       0.000000000000e+00       2.405193939558e-12       2.294545071355e-13      -1.373132711406e-15 
   49       8.176475181629e-10       5.108805047503e-14       4.955114597053e-12       0.000000000000e+00       2.329535866289e-12       2.224759573680e-13      -1.597273187630e-15 
   50       8.137932387483e-10       5.469206445309e-14       5.078973576767e-12       0.000000000000e+00       2.256791494966e-12       2.155911096225e-13      -1.705229575095e-15 
   51       8.098089018167e-10       5.845603881607e-14       5.200950044720e-12       0.000000000000e+00       2.186936390069e-12       2.088015184249e-13      -1.703299196312e-15 
   52       8.057245071198e-10       6.238346266730e-14       5.320941756261e-12       0.000000000000e+00       2.119989781330e-12       2.021551855503e-13      -1.617549597363e-15 
   53       8.015585437422e-10       6.647785618671e-14       5.438854447266e-12       0.000000000000e+00       2.055838946458e-12       1.956971111894e-13      -1.479599050142e-15 
   54       7.973169817041e-10       7.074277278985e-14       5.554602137212e-12       0.000000000000e+00       1.994229910532e-12       1.894688981853e-13      -1.326902841527e-15 
   55       7.929992345683e-10       7.518150182063e-14       5.668095913083e-12       0.000000000000e+00       1.934864924035e-12       1.835041574038e-13      -1.195137788373e-15 
   56       7.886200919858e-10       7.979608519431e-14       5.779206323945e-12       0.000000000000e+00       1.877744561060e-12       1.778142938869e-13      -1.092484506248e-15 
   57       7.841914693779e-10       8.458806024905e-14       5.887792175230e-12       0.000000000000e+00       1.822894314900e-12       1.723984964630e-13      -1.019457762100e-15 
   58       7.797151935335e-10       8.955872850760e-14       5.993711086855e-12       0.000000000000e+00       1.770260236719e-12       1.672470800638e-13      -9.762273948333e-16 
   59       7.751822658097e-10       9.470914616864e-14       6.096819347494e-12       0.000000000000e+00       1.719703795149e-12       1.623409263674e-13      -9.625967431435e-16 
   60       7.705721253309e-10       1.000401145983e-13       6.196971768852e-12       0.000000000000e+00       1.670996735892e-12       1.576509244430e-13      -9.779810733502e-16 
   61       7.658631375291e-10       1.055523081286e-13       6.294025209977e-12       0.000000000000e+00       1.623896289048e-12       1.531453126765e-13      -1.020734702585e-15 
   62       7.610684777134e-10       1.112467124851e-13       6.387850404294e-12       0.000000000000e+00       1.578402146696e-12       1.488148957297e-13      -1.086004678683e-15 
   63       7.562070311432e-10       1.171242683440e-13       6.478322540762e-12       0.000000000000e+00       1.534548307467e-12       1.446525209707e-13      -1.167354863012e-15 
   64       7.512925053404e-10       1.231857376586e-13       6.565317799392e-12       0.000000000000e+00       1.492325279027e-12       1.406453741186e-13      -1.257333322315e-15 
   65       7.463330494600e-10       1.294316985078e-13       6.648713321969e-12       0.000000000000e+00       1.451677487047e-12       1.367746705892e-13      -1.347430091141e-15 
   66       7.413308736625e-10       1.358625399439e-13       6.728387182770e-12       0.000000000000e+00       1.412500684181e-12       1.330153468405e-13      -1.428034934274e-15 
   67       7.362818684847e-10       1.424784568410e-13       6.804218359290e-12       0.000000000000e+00       1.374639359036e-12       1.293357517183e-13      -1.488395109161e-15 
   68       7.311807959138e-10       1.492795912198e-13       6.876092066814e-12       0.000000000000e+00       1.337935144759e-12       1.257075494254e-13      -1.519411895870e-15 
   69       7.260389348523e-10       1.562665009936e-13       6.943917082810e-12       0.000000000000e+00       1.302389226760e-12       1.221384484726e-13      -1.522782607400e-15 
   70       7.208693437396e-10       1.634397773837e-13       7.007611896445e-12       0.000000000000e+00       1.268028339634e-12       1.186455804649e-13      -1.503643625042e-15 
   71       7.156813713417e-10       1.707999054659e-13       7.067099761295e-12       0.000000000000e+00       1.234855415624e-12       1.152458286157e-13      -1.467925352223e-15 
   72       7.104804186224e-10       1.783472627647e-13       7.122308803248e-12       0.000000000000e+00       1.202848297934e-12       1.119557802594e-13      -1.422382579679e-15 
   73       7.052677006132e-10       1.860821178473e-13       7.173172128411e-12       0.000000000000e+00       1.171958454035e-12       1.087916793639e-13      -1.374624850641e-15 
   74       7.000400082835e-10       1.940046289186e-13       7.219627931012e-12       0.000000000000e+00       1.142109688981e-12       1.057693790426e-13      -1.333146826011e-15 
   75       6.947894704111e-10       2.021148424146e-13       7.261619601302e-12       0.000000000000e+00       1.113196858718e-12       1.029042940674e-13      -1.307358649541e-15 
   76       6.895082363864e-10       2.104123778816e-13       7.299094393346e-12       0.000000000000e+00       1.085115727919e-12       1.002079496564e-13      -1.305284072949e-15 
   77       6.842040368706e-10       2.188954193764e-13       7.331998909387e-12       0.000000000000e+00       1.057861673606e-12       9.767700624159e-14      -1.326103102979e-15 
   78       6.788870412481e-10       2.275615367343e-13       7.360282984247e-12       0.000000000000e+00       1.031446726580e-12       9.530213774110e-14      -1.366298319439e-15 
   79       6.735650534220e-10       2.364079752569e-13       7.383901129499e-12       0.000000000000e+00       1.005869386107e-12       9.307114234587e-14      -1.421849297716e-15 
   80       6.682433745925e-10       2.454316478734e-13       7.402812611839e-12       0.000000000000e+00       9.811139718697e-13       9.096882523597e-14      -1.488215149489e-15 
   81       6.629246660341e-10       2.546291273016e-13       7.416981531460e-12       0.000000000000e+00       9.571499759267e-13       8.897688129693e-14      -1.560317063433e-15 
   82       6.576088118746e-10       2.639966382091e-13       7.426376900426e-12       0.000000000000e+00       9.339314146643e-13       8.707377783605e-14      -1.632520845928e-15 
   83       6.522927818724e-10       2.735300493754e-13       7.430972721046e-12       0.000000000000e+00       9.113961807532e-13       8.523463729862e-14      -1.698619461769e-15 
   84       6.469736439908e-10       2.832252944606e-13       7.430741428117e-12       0.000000000000e+00       8.894833564679e-13       8.343698983342e-14      -1.753152510560e-15 
   85       6.416584765241e-10       2.930797316316e-13       7.425632794896e-12       0.000000000000e+00       8.681898709504e-13       8.167938362283e-14      -1.795654228921e-15 
   86       6.363558552424e-10       3.030909960094e-13       7.415591657623e-12       0.000000000000e+00       8.475220910336e-13       7.996565906199e-14      -1.827080980622e-15 
   87       6.310727666553e-10       3.132565904757e-13       7.400564208054e-12       0.000000000000e+00       8.274783539113e-13       7.829933486284e-14      -1.848541871241e-15 
   88       6.258145237272e-10       3.235738850373e-13       7.380497960312e-12       0.000000000000e+00       8.080486209656e-13       7.668358942337e-14      -1.861303758380e-15 
   89       6.205846815933e-10       3.340401161912e-13       7.355341717722e-12       0.000000000000e+00       7.892141315931e-13       7.512124219681e-14      -1.866796261876e-15 
   90       6.153849532755e-10       3.446523862893e-13       7.325045539654e-12       0.000000000000e+00       7.709470570318e-13       7.361473506090e-14      -1.866616774020e-15 
   91       6.102151253981e-10       3.554076629030e-13       7.289560708367e-12       0.000000000000e+00       7.532101541877e-13       7.216611368708e-14      -1.862535469772e-15 
   92       6.050729739037e-10       3.663027781884e-13       7.248839695850e-12       0.000000000000e+00       7.359564194613e-13       7.077700890970e-14      -1.856500316973e-15 
   93       5.999565917508e-10       3.773342912321e-13       7.202843466130e-12       0.000000000000e+00       7.191415570156e-13       6.944841723508e-14      -1.850272948377e-15 
   94       5.948719555409e-10       3.884980527870e-13       7.151564710534e-12       0.000000000000e+00       7.027642805613e-13       6.818004507342e-14      -1.844262749659e-15 
   95       5.898263463753e-10       3.997895735937e-13       7.095008061969e-12       0.000000000000e+00       6.868314611273e-13       6.697083097398e-14      -1.838525865617e-15 
   96       5.848259887827e-10       4.112041530841e-13       7.033183137453e-12       0.000000000000e+00       6.713456847110e-13       6.581911659596e-14      -1.833118657919e-15 
   97       5.798759995446e-10       4.227368768653e-13       6.966104605656e-12       0.000000000000e+00       6.563050820070e-13       6.472262532062e-14      -1.828097648220e-15 
   98       5.749803365195e-10       4.343826142035e-13       6.893792254431e-12       0.000000000000e+00       6.417031581356e-13       6.367844086329e-14      -1.823519461275e-15 
   99       5.701417474679e-10       4.461360155079e-13       6.816271058348e-12       0.000000000000e+00       6.275286223708e-13       6.268298588544e-14      -1.819440768058e-15 
  100       5.653617188766e-10       4.579915098150e-13       6.733571246230e-12       0.000000000000e+00       6.137652178690e-13       6.173200060669e-14      -1.815918228876e-15 
  101       5.606404247837e-10       4.699433022722e-13       6.645728368689e-12       0.000000000000e+00       6.003915513973e-13       6.082052141689e-14      -1.813008436485e-15 
  102       5.559766756033e-10       4.819853716220e-13       6.552783365655e-12       0.000000000000e+00       5.873809230618e-13       5.994285948818e-14      -1.810767859208e-15 
  103       5.513678669499e-10       4.941114676859e-13       6.454782633918e-12       0.000000000000e+00       5.747011560361e-13       5.909257938698e-14      -1.809252784047e-15 
  104       5.468118906095e-10       5.063153209580e-13       6.351772867691e-12       0.000000000000e+00       5.623225774669e-13       5.826393798005e-14      -1.808507135433e-15 
  105       5.423132716722e-10       5.185913090510e-13       6.243784641107e-12       0.000000000000e+00       5.502435557614e-13       5.745646858899e-14      -1.808524179934e-15 
  106       5.378777688907e-10       5.309338760058e-13       6.130846723538e-12       0.000000000000e+00       5.384681116395e-13       5.667097909772e-14      -1.809279518283e-15 
