# dimensionless total lensed [l(l+1)/2pi] C_l's
# for l=2 to 2500, i.e. number of multipoles equal to 2499
#
# -> if you prefer output in CAMB/HealPix/LensPix units/order, set 'format' to 'camb' in input file
# -> if you don't want to see such a header, set 'headers' to 'no' in input file
# -> for CMB lensing (phi), these are C_l^phi-phi for the lensing potential.
#    Remember the conversion factors:
#    C_l^dd (deflection) = l(l+1) C_l^phi-phi
#    C_l^gg (shear/convergence) = 1/4 (l(l+1))^2 C_l^phi-phi
#
# 1:l     2:TT                     3:EE                     4:TE                     5:BB                     6:phiphi                 7:TPhi                   8:Ephi               
    2       1.108001242797e-09       6.815321577243e-14       6.081074208224e-12       7.530156488866e-19       8.681824290847e-09       4.865774901504e-10      -2.526252397537e-12 
    3       1.073812685663e-09       1.186068349022e-13       6.960665609970e-12       1.508380118745e-18       5.457034393323e-09       3.482351086910e-10      -2.224386521042e-12 
    4       1.048888942552e-09       1.441989401617e-13       6.874243376949e-12       2.519086926693e-18       3.814350849257e-09       2.652790284846e-10      -1.778074397050e-12 
    5       1.031287930451e-09       1.404409761477e-13       6.298353762208e-12       3.787994900159e-18       2.854253867849e-09       2.106703083016e-10      -1.323251770845e-12 
    6       1.019087069082e-09       1.153245571349e-13       5.508484247614e-12       5.318452452070e-18       2.233550434410e-09       1.722041898930e-10      -9.070813680726e-13 
    7       1.010795911163e-09       8.190442186014e-14       4.677960205410e-12       7.114161671637e-18       1.803198968103e-09       1.437867413440e-10      -5.541135341209e-13 
    8       1.005234461991e-09       5.129027857074e-14       3.898542036349e-12       9.179028625561e-18       1.490282158074e-09       1.220554696166e-10      -2.755113902211e-13 
    9       1.001615414614e-09       2.938667671104e-14       3.214707002573e-12       1.151700622191e-17       1.255244593700e-09       1.049962239323e-10      -7.333811336983e-14 
   10       9.994121445019e-10       1.692360822575e-14       2.644399880285e-12       1.413193631092e-17       1.074114319485e-09       9.135602898259e-11       5.730536190418e-14 
   11       9.983221960501e-10       1.142573566226e-14       2.190722924213e-12       1.702739773759e-17       9.028920050493e-10       8.048413782151e-11       1.255351393809e-13 
   12       9.980447162152e-10       9.553748042124e-15       1.847598217946e-12       2.020656681743e-17       7.895429879238e-10       7.122600731192e-11       1.460289042965e-13 
   13       9.982194869192e-10       8.738253867871e-15       1.603640429873e-12       2.367209618955e-17       6.964533525957e-10       6.363942034225e-11       1.323115345015e-13 
   14       9.986044737871e-10       7.754059062930e-15       1.444829774737e-12       2.742601723031e-17       6.189642987097e-10       5.706584913574e-11       9.722704845560e-14 
   15       9.994030110710e-10       6.467988114110e-15       1.355728603206e-12       3.146967021847e-17       5.537087864823e-10       5.156800489926e-11       5.316005054342e-14 
   16       1.000445691396e-09       5.244620754947e-15       1.321057521068e-12       3.580366527008e-17       4.982005567880e-10       4.690437322164e-11       9.461422374431e-15 
   17       1.001415424113e-09       4.431858487931e-15       1.327839009886e-12       4.042787575617e-17       4.505610524621e-10       4.287410798286e-11      -2.722975988446e-14 
   18       1.002435514773e-09       4.124335219617e-15       1.365211185163e-12       4.534144829684e-17       4.091912130521e-10       3.929223217640e-11      -5.307603307136e-14 
   19       1.003666078186e-09       4.198558506164e-15       1.426747411779e-12       5.054294191729e-17       3.734436431746e-10       3.613068100392e-11      -6.700374581550e-14 
   20       1.004732549222e-09       4.435574100371e-15       1.504692822756e-12       5.603023839893e-17       3.419428582044e-10       3.333650614640e-11      -6.969022848421e-14 
   21       1.005787265114e-09       4.735809090590e-15       1.595616031250e-12       6.180089030450e-17       3.141980119927e-10       3.086366289799e-11      -6.324221267008e-14 
   22       1.006850929940e-09       5.045565445146e-15       1.696591192915e-12       6.785201030543e-17       2.895499324842e-10       2.862801948809e-11      -5.104918206774e-14 
   23       1.007928436891e-09       5.422904815639e-15       1.805628282998e-12       7.418066954408e-17       2.676626114794e-10       2.659898020838e-11      -3.614504580890e-14 
   24       1.008836872430e-09       5.960946712171e-15       1.920722041590e-12       8.078378686683e-17       2.480326420323e-10       2.474458906886e-11      -2.176319517942e-14 
   25       1.009699042594e-09       6.685227167971e-15       2.041134687945e-12       8.765857568722e-17       2.304313444754e-10       2.307648163113e-11      -9.895967367067e-15 
   26       1.010568612343e-09       7.590131605415e-15       2.166304034117e-12       9.480240943025e-17       2.145423948418e-10       2.159849933895e-11      -2.050085500494e-15 
   27       1.011389806325e-09       8.638767778503e-15       2.295456779435e-12       1.022132031396e-16       2.001767881436e-10       2.027390631958e-11       1.457754978423e-15 
   28       1.011990804511e-09       9.785279551786e-15       2.427639293767e-12       1.098893271012e-16       1.870883892304e-10       1.904693801367e-11       9.178245397025e-16 
   29       1.012463769342e-09       1.102893781385e-14       2.562150574047e-12       1.178299997329e-16       1.752114487124e-10       1.791475450465e-11      -2.861477182355e-15 
   30       1.012874712330e-09       1.238411230996e-14       2.698232248393e-12       1.260350977915e-16       1.644195482248e-10       1.688284591448e-11      -8.603283593684e-15 
   31       1.013188642053e-09       1.386509103902e-14       2.835025099123e-12       1.345051462711e-16       1.544938948138e-10       1.594706716980e-11      -1.479447144049e-14 
   32       1.013452859034e-09       1.547632860594e-14       2.971887634480e-12       1.432414826553e-16       1.453840318187e-10       1.509704417851e-11      -2.047350046276e-14 
   33       1.013656447024e-09       1.721845820472e-14       3.108183072580e-12       1.522462774770e-16       1.370262728601e-10       1.431203612195e-11      -2.470706454396e-14 
   34       1.013722975792e-09       1.909144866926e-14       3.243286068507e-12       1.615224503888e-16       1.293045298805e-10       1.356734467819e-11      -2.662637422325e-14 
   35       1.013698279118e-09       2.109723337511e-14       3.376912290272e-12       1.710732686004e-16       1.221798617221e-10       1.286365764610e-11      -2.630330320796e-14 
   36       1.013611767912e-09       2.323789731869e-14       3.508906155897e-12       1.809027169033e-16       1.155956959279e-10       1.220709109357e-11      -2.419133959608e-14 
   37       1.013445940754e-09       2.551623103256e-14       3.639167949086e-12       1.910152884243e-16       1.094670196727e-10       1.160081695462e-11      -2.085905815534e-14 
   38       1.013230190605e-09       2.794015200090e-14       3.767689451363e-12       2.014146945908e-16       1.037783854140e-10       1.104389730272e-11      -1.682456044734e-14 
   39       1.012966406591e-09       3.051979372491e-14       3.894537010909e-12       2.121047965908e-16       9.851209201710e-11       1.053151716607e-11      -1.268282891357e-14 
   40       1.012596170746e-09       3.326640798596e-14       4.019847609638e-12       2.230899874850e-16       9.361836134770e-11       1.005487150098e-11      -9.160647026854e-15 
   41       1.012038781185e-09       3.619057861928e-14       4.143752216328e-12       2.343746389103e-16       8.903276854996e-11       9.603978344095e-12      -6.938711453895e-15 
   42       1.011334653495e-09       3.929600349602e-14       4.266105362774e-12       2.459611560480e-16       8.474209054062e-11       9.178017661000e-12      -6.028577265546e-15 
   43       1.010538487251e-09       4.258380039510e-14       4.386674869651e-12       2.578513374568e-16       8.073517888597e-11       8.777799408441e-12      -6.206712425770e-15 
   44       1.009676335360e-09       4.605412537453e-14       4.505214063292e-12       2.700468909368e-16       7.698319416230e-11       8.402795284182e-12      -7.178596811012e-15 
   45       1.008754586793e-09       4.970691855495e-14       4.621459938828e-12       2.825489438920e-16       7.344996911358e-11       8.051557004492e-12      -8.613461685999e-15 
   46       1.007797155013e-09       5.354455107172e-14       4.735129885282e-12       2.953564276815e-16       7.013011523586e-11       7.723392973303e-12      -1.027175002927e-14 
   47       1.006814327162e-09       5.756986570925e-14       4.845921894862e-12       3.084671901673e-16       6.701991015652e-11       7.416996009786e-12      -1.190792466046e-14 
   48       1.005789522376e-09       6.178542467605e-14       4.953513859175e-12       3.218783933052e-16       6.410580061015e-11       7.129870087532e-12      -1.323214916296e-14 
   49       1.004676994545e-09       6.619349507680e-14       5.057562307457e-12       3.355864738186e-16       6.136367050135e-11       6.858245358609e-12      -1.390794662624e-14 
   50       1.003424793964e-09       7.079635591628e-14       5.157759280773e-12       3.495871176008e-16       5.876613632181e-11       6.598168915445e-12      -1.365567427805e-14 
   51       1.002056329596e-09       7.559735105719e-14       5.254024081684e-12       3.638752659698e-16       5.630846602923e-11       6.349323264477e-12      -1.260149098195e-14 
   52       1.000606975057e-09       8.060009696338e-14       5.346361391809e-12       3.784450431326e-16       5.398843035674e-11       6.112097447883e-12      -1.101906601464e-14 
   53       9.990996624174e-10       8.580818673705e-14       5.434809123974e-12       3.932897048423e-16       5.179854457971e-11       5.886472951225e-12      -9.234617781971e-15 
   54       9.975437736306e-10       9.122519072172e-14       5.519439896246e-12       4.084015997166e-16       4.972571433641e-11       5.671994056345e-12      -7.629552132493e-15 
   55       9.959411406774e-10       9.685437559838e-14       5.600311268586e-12       4.237729307129e-16       4.775525192404e-11       5.467993231203e-12      -6.552302913531e-15 
   56       9.943083311786e-10       1.026977785752e-13       5.677298599297e-12       4.393983496837e-16       4.588490495683e-11       5.274400786173e-12      -6.022163119491e-15 
   57       9.926579572408e-10       1.087569042627e-13       5.750223248417e-12       4.552729396121e-16       4.411369235477e-11       5.091084424515e-12      -5.956500255932e-15 
   58       9.909912382567e-10       1.150329758912e-13       5.818899666348e-12       4.713914635861e-16       4.243765930600e-11       4.917592546148e-12      -6.254228240982e-15 
   59       9.892971692874e-10       1.215269249460e-13       5.883134871623e-12       4.877483572926e-16       4.084969336563e-11       4.753134537049e-12      -6.794908143875e-15 
   60       9.875516894442e-10       1.282393808021e-13       5.942727928690e-12       5.043377215121e-16       3.933934055471e-11       4.596561058647e-12      -7.437848923497e-15 
   61       9.857296535499e-10       1.351707429402e-13       5.997484899909e-12       5.211543315941e-16       3.789572064162e-11       4.446674880523e-12      -8.050381699778e-15 
   62       9.838457685942e-10       1.423214399824e-13       6.047268804841e-12       5.381969476453e-16       3.651745368902e-11       4.303289499580e-12      -8.602133164992e-15 
   63       9.819214120016e-10       1.496917106716e-13       6.091959999193e-12       5.554657374113e-16       3.520464543129e-11       4.166374243895e-12      -9.090413397929e-15 
   64       9.799722222202e-10       1.572815188309e-13       6.131441659511e-12       5.729613491314e-16       3.395590083395e-11       4.035735657278e-12      -9.512935459558e-15 
   65       9.780076733422e-10       1.650905456192e-13       6.165599751937e-12       5.906849363011e-16       3.276823852725e-11       3.911008276562e-12      -9.867841785701e-15 
   66       9.760306497246e-10       1.731181817863e-13       6.194323000971e-12       6.086381824344e-16       3.163700523984e-11       3.791645408891e-12      -1.015373057971e-14 
   67       9.740370206091e-10       1.813635199282e-13       6.217502858232e-12       6.268233258265e-16       3.055579023233e-11       3.676909909003e-12      -1.036968220516e-14 
   68       9.720213003209e-10       1.898256136983e-13       6.235038940864e-12       6.452428145364e-16       2.951814451719e-11       3.566082072130e-12      -1.051703378841e-14 
   69       9.699959115230e-10       1.985043337417e-13       6.246856696214e-12       6.638981348052e-16       2.852333430659e-11       3.459152844138e-12      -1.060506158456e-14 
   70       9.679750789677e-10       2.073996720798e-13       6.252893276804e-12       6.827907886382e-16       2.757160500584e-11       3.356255151303e-12      -1.064650271158e-14 
   71       9.659688243744e-10       2.165114895993e-13       6.253092494093e-12       7.019226576106e-16       2.666244087494e-11       3.257455608684e-12      -1.065597864463e-14 
   72       9.639826966908e-10       2.258395151355e-13       6.247404927125e-12       7.212960181723e-16       2.579452562045e-11       3.162750850236e-12      -1.065006632001e-14 
   73       9.620175023551e-10       2.353833445552e-13       6.235788031174e-12       7.409135569532e-16       2.496570298731e-11       3.072063858930e-12      -1.064736923905e-14 
   74       9.600690355577e-10       2.451424398394e-13       6.218206246399e-12       7.607783860685e-16       2.417293735065e-11       2.985240296865e-12      -1.066858857210e-14 
   75       9.581278085031e-10       2.551161281662e-13       6.194631106493e-12       7.808940584235e-16       2.341227430766e-11       2.902044835385e-12      -1.073659426237e-14 
   76       9.561843877541e-10       2.653031262836e-13       6.165042878746e-12       8.012631289793e-16       2.267982613359e-11       2.822224173059e-12      -1.087022443779e-14 
   77       9.542471229693e-10       2.757000155223e-13       6.129435589353e-12       8.218825018243e-16       2.197502272699e-11       2.745717468927e-12      -1.106422108225e-14 
   78       9.523271760469e-10       2.863024857361e-13       6.087813116148e-12       8.427472584833e-16       2.129788464763e-11       2.672477793619e-12      -1.130574771975e-14 
   79       9.504330495701e-10       2.971057748623e-13       6.040187876273e-12       8.638520224080e-16       2.064803274920e-11       2.602406580604e-12      -1.158027994561e-14 
   80       9.485704320267e-10       3.081046582706e-13       5.986580966227e-12       8.851909444659e-16       2.002466978689e-11       2.535351323800e-12      -1.187154792429e-14 
   81       9.467420430277e-10       3.192934381116e-13       5.927022301923e-12       9.067576884296e-16       1.942656202482e-11       2.471103275177e-12      -1.216147888715e-14 
   82       9.449474785266e-10       3.306659326652e-13       5.861550758737e-12       9.285454164652e-16       1.885202084359e-11       2.409395142357e-12      -1.243013963029e-14 
   83       9.431830560388e-10       3.422154656895e-13       5.790214311564e-12       9.505467746216e-16       1.829888434777e-11       2.349898786228e-12      -1.265567901232e-14 
   84       9.414451917036e-10       3.539355370722e-13       5.713055062735e-12       9.727543156054e-16       1.776504504465e-11       2.292302465192e-12      -1.281889395076e-14 
   85       9.397415137664e-10       3.658219858604e-13       5.630061167168e-12       9.951618794229e-16       1.725017367901e-11       2.236562324485e-12      -1.291792308193e-14 
   86       9.380813162597e-10       3.778711679540e-13       5.541207157152e-12       1.017763416078e-15       1.675424878059e-11       2.182688570977e-12      -1.295589489688e-14 
   87       9.364720969523e-10       3.900793074717e-13       5.446468233618e-12       1.040552561581e-15       1.627702692260e-11       2.130668682137e-12      -1.293654072778e-14 
   88       9.349194619276e-10       4.024424975505e-13       5.345820152210e-12       1.063522630783e-15       1.581803350682e-11       2.080466440549e-12      -1.286421495157e-14 
   89       9.334270301608e-10       4.149567011446e-13       5.239239109348e-12       1.086666610220e-15       1.537655354881e-11       2.032020968439e-12      -1.274391519360e-14 
   90       9.319963380970e-10       4.276177518241e-13       5.126701628299e-12       1.109977150945e-15       1.495162246305e-11       1.985245762199e-12      -1.258130253134e-14 
   91       9.306267442291e-10       4.404213545746e-13       5.008184445241e-12       1.133446561372e-15       1.454201684817e-11       1.940027726906e-12      -1.238272169798e-14 
   92       9.293153336754e-10       4.533630865960e-13       4.883664395334e-12       1.157066800108e-15       1.414624527205e-11       1.896226210851e-12      -1.215522128614e-14 
   93       9.280594933458e-10       4.664381532955e-13       4.753133622131e-12       1.180831260028e-15       1.376290347207e-11       1.853708528347e-12      -1.190571667743e-14 
   94       9.268652877393e-10       4.796406125510e-13       4.616648069962e-12       1.204740442978e-15       1.339182108040e-11       1.812464736689e-12      -1.163829093586e-14 
   95       9.257401723028e-10       4.929640347116e-13       4.474286108093e-12       1.228797129275e-15       1.303307113148e-11       1.772508416913e-12      -1.135652343426e-14 
   96       9.246903771099e-10       5.064017344805e-13       4.326133952345e-12       1.253004679713e-15       1.268661685805e-11       1.733841265239e-12      -1.106431928077e-14 
   97       9.237208480978e-10       5.199467683543e-13       4.172285761493e-12       1.277367052996e-15       1.235230747862e-11       1.696452628467e-12      -1.076591775478e-14 
   98       9.228351883038e-10       5.335919320610e-13       4.012843733683e-12       1.301888823156e-15       1.202987398488e-11       1.660319039365e-12      -1.046590074296e-14 
   99       9.220355991016e-10       5.473297579990e-13       3.847918202833e-12       1.326575196983e-15       1.171892492914e-11       1.625403752064e-12      -1.016920117528e-14 
  100       9.213228214382e-10       5.611525126759e-13       3.677627735049e-12       1.351432031452e-15       1.141894221180e-11       1.591656277445e-12      -9.881111460948e-15 
  101       9.206960770701e-10       5.750521941466e-13       3.502099225025e-12       1.376465851147e-15       1.112927686873e-11       1.559011918536e-12      -9.607291924476e-15 
  102       9.201530098000e-10       5.890205294523e-13       3.321467992459e-12       1.401683865689e-15       1.084914485875e-11       1.527391305904e-12      -9.353779241631e-15 
  103       9.196896267134e-10       6.030489720592e-13       3.135877878456e-12       1.427093987161e-15       1.057762285106e-11       1.496699933040e-12      -9.126994875452e-15 
  104       9.193025044531e-10       6.171290185533e-13       2.945469715304e-12       1.452702936836e-15       1.031385823255e-11       1.466849650423e-12      -8.932266028011e-15 
  105       9.189958740377e-10       6.312532129645e-13       2.750344754272e-12       1.478510236561e-15       1.005774051181e-11       1.437827455148e-12      -8.769142779968e-15 
  106       9.187753880025e-10       6.454142739686e-13       2.550596454174e-12       1.504513434402e-15       9.809313180842e-12       1.409635170871e-12      -8.635461147069e-15 
  107       9.186459073606e-10       6.596047886813e-13       2.346321635855e-12       1.530709939342e-15       9.568565758165e-12       1.382268098334e-12      -8.528766260762e-15 
