# dimensionless total lensed [l(l+1)/2pi] C_l's
# for l=2 to 2500, i.e. number of multipoles equal to 2499
#
# -> if you prefer output in CAMB/HealPix/LensPix units/order, set 'format' to 'camb' in input file
# -> if you don't want to see such a header, set 'headers' to 'no' in input file
# -> for CMB lensing (phi), these are C_l^phi-phi for the lensing potential.
#    Remember the conversion factors:
#    C_l^dd (deflection) = l(l+1) C_l^phi-phi
#    C_l^gg (shear/convergence) = 1/4 (l(l+1))^2 C_l^phi-phi
#
# 1:l     2:TT                     3:EE                     4:TE                     5:BB                     6:phiphi                 7:TPhi                   8:Ephi               
    2       1.495442760273e-10       7.309265059080e-15       4.815171148060e-13       2.388861387804e-19       8.628903610509e-09       4.854772125544e-10      -2.515854151608e-12 
    3       1.409375667451e-10       1.238839452130e-14       6.068719461074e-13       4.780044831211e-19       5.411291721079e-09       3.469573586109e-10      -2.211507031142e-12 
    4       1.324638933480e-10       1.446592354283e-14       6.277975858840e-13       7.971819740141e-19       3.776588552793e-09       2.639785050832e-10      -1.764116067068e-12 
    5       1.257528917299e-10       1.337973190996e-14       5.879550144246e-13       1.196705776520e-18       2.821984230357e-09       2.093815838904e-10      -1.309529286441e-12 
    6       1.208087576697e-10       1.032478441012e-14       5.173987897645e-13       1.676916280337e-18       2.205212283214e-09       1.709429029468e-10      -8.948468925700e-13 
    7       1.173342233455e-10       6.843838595490e-15       4.365330660503e-13       2.238195817224e-18       1.778233642842e-09       1.425663901552e-10      -5.443860557774e-13 
    8       1.150094176169e-10       4.045255171791e-15       3.576614997254e-13       2.880956158835e-18       1.468351550816e-09       1.208855287076e-10      -2.689334595323e-13 
    9       1.135899950186e-10       2.339962952417e-15       2.880577371191e-13       3.605625289288e-18       1.235838580625e-09       1.038809734707e-10      -7.009986708498e-14 
   10       1.128613018400e-10       1.576066392495e-15       2.317780349469e-13       4.412633973997e-18       1.056623420698e-09       9.029297740729e-11       5.745597583857e-14 
   11       1.126830764933e-10       1.351208675949e-15       1.905546770666e-13       5.302402652291e-18       8.886898864748e-10       7.950622630523e-11       1.233291887558e-13 
   12       1.129466835342e-10       1.294588313383e-15       1.640599038380e-13       6.275329165882e-18       7.765278492989e-10       7.028426675431e-11       1.421600855636e-13 
   13       1.135320831243e-10       1.208007401090e-15       1.505250308330e-13       7.331777799057e-18       6.844563325639e-10       6.274647515218e-11       1.277329346312e-13 
   14       1.143407942209e-10       1.063264028844e-15       1.473981485726e-13       8.472070050835e-18       6.078507021009e-10       5.620932690292e-11       9.279532789674e-14 
   15       1.153792178459e-10       9.202377752953e-16       1.516646922899e-13       9.696477486736e-18       5.433693949156e-10       5.074770640199e-11       4.959311332842e-14 
   16       1.166084638893e-10       8.404031751255e-16       1.602810277582e-13       1.100521693107e-17       4.885455304578e-10       4.611880692660e-11       7.232457043100e-15 
   17       1.179455003054e-10       8.411741252469e-16       1.707678006760e-13       1.239844816334e-17       4.415155573588e-10       4.212235062690e-11      -2.792920671919e-14 
   18       1.193943887612e-10       8.950457248369e-16       1.812583734406e-13       1.387627295240e-17       4.006946006379e-10       3.857273457452e-11      -5.233421669080e-14 
   19       1.209630582431e-10       9.693348483502e-16       1.907730515125e-13       1.543874396402e-17       3.654375302580e-10       3.544037684175e-11      -6.510245800031e-14 
   20       1.225956288914e-10       1.030562382000e-15       1.985685573295e-13       1.708585650600e-17       3.343837602407e-10       3.267209112089e-11      -6.706958889623e-14 
   21       1.243040211286e-10       1.081655448454e-15       2.047244303758e-13       1.881757374312e-17       3.070458376371e-10       3.022365554765e-11      -6.038518044635e-14 
   22       1.260879329723e-10       1.140726895750e-15       2.096934198437e-13       2.063381683407e-17       2.827706820452e-10       2.801369664239e-11      -4.840846273383e-14 
   23       1.279365717860e-10       1.227172459948e-15       2.139233701932e-13       2.253449490459e-17       2.612248132871e-10       2.601113569071e-11      -3.407762215474e-14 
   24       1.298178542226e-10       1.359591118704e-15       2.179345847875e-13       2.451949513785e-17       2.419102418459e-10       2.418236736224e-11      -2.047693880814e-14 
   25       1.317486504103e-10       1.538392514016e-15       2.222217827118e-13       2.658871772116e-17       2.246000750791e-10       2.253677291317e-11      -9.447600287025e-15 
   26       1.337412866655e-10       1.756560535831e-15       2.272302521935e-13       2.874206372008e-17       2.089813614953e-10       2.107676123861e-11      -2.331878072376e-15 
   27       1.357769113063e-10       2.007678387982e-15       2.329801808965e-13       3.097946570275e-17       1.948668547346e-10       1.976942682725e-11       6.620879431510e-16 
   28       1.378198933798e-10       2.285336750540e-15       2.392873933519e-13       3.330087999896e-17       1.820132713097e-10       1.856395052330e-11      -9.525831603161e-17 
   29       1.398799667646e-10       2.589051790853e-15       2.458479732662e-13       3.570632197986e-17       1.703550512753e-10       1.745584862306e-11      -3.801164546233e-15 
   30       1.419713711749e-10       2.920067201919e-15       2.522262636404e-13       3.819584633646e-17       1.597671041633e-10       1.644630547473e-11      -9.226625481856e-15 
   31       1.440979607470e-10       3.279007073663e-15       2.579084723684e-13       4.076954698929e-17       1.500335693266e-10       1.552718038316e-11      -1.492866692529e-14 
   32       1.462626233942e-10       3.663758717546e-15       2.625223782471e-13       4.342758065669e-17       1.411042582752e-10       1.468921490234e-11      -2.002926980334e-14 
   33       1.484586600483e-10       4.070695960752e-15       2.656892046690e-13       4.617016053029e-17       1.329161009729e-10       1.391497678047e-11      -2.370100680785e-14 
   34       1.506731977086e-10       4.496668876501e-15       2.670412868149e-13       4.899755003112e-17       1.253545982066e-10       1.318309429024e-11      -2.518539267137e-14 
   35       1.529128655302e-10       4.944269819680e-15       2.664970854461e-13       5.191004439117e-17       1.183811086208e-10       1.249406632719e-11      -2.459200581626e-14 
   36       1.551854465919e-10       5.418475913876e-15       2.640842959044e-13       5.490799053289e-17       1.119397475771e-10       1.185261310374e-11      -2.238999422136e-14 
   37       1.574933383125e-10       5.924454822898e-15       2.598749239711e-13       5.799177205435e-17       1.059467509946e-10       1.126054184385e-11      -1.915231805683e-14 
   38       1.598370075037e-10       6.464531448627e-15       2.540004613473e-13       6.116172562936e-17       1.003866707538e-10       1.071670073146e-11      -1.535846325183e-14 
   39       1.622114453136e-10       7.040265231125e-15       2.466473371120e-13       6.441820229595e-17       9.524189562610e-11       1.021646101702e-11      -1.154171849522e-14 
   40       1.646043532091e-10       7.653263661152e-15       2.380572466822e-13       6.776159291582e-17       9.046338870068e-11       9.751315804504e-12      -8.351246037818e-15 
   41       1.670017822198e-10       8.304886779369e-15       2.284586255107e-13       7.119228972556e-17       8.598777926325e-11       9.311592902125e-12      -6.389560850367e-15 
   42       1.694089274060e-10       8.995242780729e-15       2.178260472124e-13       7.471055018598e-17       8.180192044664e-11       8.896431754948e-12      -5.644107570960e-15 
   43       1.718349341924e-10       9.723866985697e-15       2.060482384621e-13       7.831659283771e-17       7.789473296940e-11       8.506510830192e-12      -5.882707279118e-15 
   44       1.742868950425e-10       1.048997092773e-14       1.929917448584e-13       8.201063390908e-17       7.423783278316e-11       8.141180043470e-12      -6.802859489111e-15 
   45       1.767695089577e-10       1.129272580415e-14       1.785110675895e-13       8.579285017582e-17       7.079567612265e-11       7.798904457498e-12      -8.072933980526e-15 
   46       1.792845498538e-10       1.213225975614e-14       1.624863340688e-13       8.966325532885e-17       6.756285812699e-11       7.479022667937e-12      -9.481082950590e-15 
   47       1.818307980063e-10       1.300892562094e-14       1.447942568572e-13       9.362178590233e-17       6.453562140938e-11       7.180319850078e-12      -1.082315893329e-14 
   48       1.844038501440e-10       1.392302192740e-14       1.252965751886e-13       9.766833228387e-17       6.170060569658e-11       6.900435561765e-12      -1.185902937889e-14 
   49       1.869958553810e-10       1.487479087374e-14       1.038391803073e-13       1.018027361640e-16       5.903413367788e-11       6.635781675101e-12      -1.231068919262e-14 
   50       1.895987295260e-10       1.586442718863e-14       8.029467193187e-14       1.060247845174e-16       5.650934389003e-11       6.382582657847e-12      -1.195046234408e-14 
   51       1.922154392239e-10       1.689211224178e-14       5.470567493518e-14       1.103341955377e-16       5.412152872536e-11       6.140519706069e-12      -1.089821012091e-14 
   52       1.948513243102e-10       1.795798569668e-14       2.717891244927e-14       1.147306244763e-16       5.186843968570e-11       5.909933910037e-12      -9.401534103309e-15 
   53       1.975107891421e-10       1.906213396216e-14      -2.153683807276e-15       1.192136641267e-16       4.974270476686e-11       5.690761799875e-12      -7.755034268962e-15 
   54       2.001972022188e-10       2.020458868228e-14      -3.313380437422e-14       1.237828421115e-16       4.773148357993e-11       5.482506093726e-12      -6.302661017375e-15 
   55       2.029129381321e-10       2.138534239784e-14      -6.561526095183e-14       1.284376730915e-16       4.582038616989e-11       5.284465705216e-12      -5.357171348718e-15 
   56       2.056597455783e-10       2.260440354640e-14      -9.959336121603e-14       1.331778367998e-16       4.400715957743e-11       5.096559690397e-12      -4.929678196603e-15 
   57       2.084382949464e-10       2.386175248040e-14      -1.351056256178e-13       1.380030394815e-16       4.229079723066e-11       4.918656750032e-12      -4.937035098870e-15 
   58       2.112479512298e-10       2.515732466979e-14      -1.721953033535e-13       1.429129622846e-16       4.066739826823e-11       4.750315169660e-12      -5.277987055809e-15 
   59       2.140866791925e-10       2.649100986101e-14      -2.109117487190e-13       1.479072606852e-16       3.912998877856e-11       4.590763668773e-12      -5.832292846236e-15 
   60       2.169509485352e-10       2.786265123585e-14      -2.513107974624e-13       1.529855639143e-16       3.766834303920e-11       4.438882250000e-12      -6.459847343572e-15 
   61       2.198372228698e-10       2.927198883228e-14      -2.934433041564e-13       1.581475531740e-16       3.627182359040e-11       4.293505604304e-12      -7.029628314329e-15 
   62       2.227470317322e-10       3.071847686904e-14      -3.373168962977e-13       1.633932181024e-16       3.493905080256e-11       4.154456233070e-12      -7.516114996512e-15 
   63       2.256828739342e-10       3.220142373847e-14      -3.829262642815e-13       1.687226571184e-16       3.367009641057e-11       4.021710293243e-12      -7.923052733509e-15 
   64       2.286466905190e-10       3.372004156849e-14      -4.302642435512e-13       1.741360055992e-16       3.246357487129e-11       3.895086764441e-12      -8.255605504379e-15 
   65       2.316398201802e-10       3.527344361293e-14      -4.793218153100e-13       1.796334378058e-16       3.131656038818e-11       3.774238532598e-12      -8.520424548191e-15 
   66       2.346629546812e-10       3.686064164199e-14      -5.300881072320e-13       1.852151688095e-16       3.022450393593e-11       3.658643473600e-12      -8.725716988381e-15 
   67       2.377160942751e-10       3.848054333256e-14      -5.825503941747e-13       1.908814564176e-16       2.918115028512e-11       3.547595536931e-12      -8.881314457098e-15 
   68       2.407990148104e-10       4.013207040278e-14      -6.366940425866e-13       1.966325912599e-16       2.818020881374e-11       3.440402824668e-12      -8.997651529986e-15 
   69       2.439128786101e-10       4.181454664515e-14      -6.925023290614e-13       2.024688604102e-16       2.722094454844e-11       3.337048366010e-12      -9.082307266652e-15 
   70       2.470588714127e-10       4.352738419236e-14      -7.499565861277e-13       2.083905798196e-16       2.630357616012e-11       3.237647830507e-12      -9.142882955179e-15 
   71       2.502376886353e-10       4.526997019982e-14      -8.090362545845e-13       2.143981070982e-16       2.542758497679e-11       3.142250821836e-12      -9.188070309264e-15 
   72       2.534495038803e-10       4.704166732412e-14      -8.697188827721e-13       2.204918431381e-16       2.459167686211e-11       3.050837255442e-12      -9.227692210477e-15 
   73       2.566939374409e-10       4.884181420152e-14      -9.319801258446e-13       2.266722337371e-16       2.379374409390e-11       2.963313736173e-12      -9.272743450522e-15 
   74       2.599700248072e-10       5.066972592640e-14      -9.957937450410e-13       2.329397712215e-16       2.303082724267e-11       2.879509935920e-12      -9.335431473504e-15 
   75       2.632761851722e-10       5.252469452973e-14      -1.061131606957e-12       2.392949960694e-16       2.229907705014e-11       2.799174971259e-12      -9.429217118188e-15 
   76       2.666108649618e-10       5.440582966990e-14      -1.127960784977e-12       2.457383996419e-16       2.159471002726e-11       2.722043960042e-12      -9.564915688099e-15 
   77       2.699746735221e-10       5.631154610873e-14      -1.196234254954e-12       2.522701083112e-16       2.091716069539e-11       2.648059710420e-12      -9.738089272619e-15 
   78       2.733685814761e-10       5.823998320930e-14      -1.265898493634e-12       2.588901444127e-16       2.026643758312e-11       2.577185064605e-12      -9.939418693807e-15 
   79       2.767932628834e-10       6.018915367944e-14      -1.336896166801e-12       2.655985196296e-16       1.964216304450e-11       2.509334158307e-12      -1.015839982280e-14 
   80       2.802490775875e-10       6.215694077361e-14      -1.409166069126e-12       2.723952345884e-16       1.904355551460e-11       2.444370237445e-12      -1.038330353589e-14 
   81       2.837360535641e-10       6.414109549482e-14      -1.482643064014e-12       2.792802784535e-16       1.846941176503e-11       2.382103474868e-12      -1.060113567066e-14 
   82       2.872538692690e-10       6.613923379651e-14      -1.557258023456e-12       2.862536285234e-16       1.791808915952e-11       2.322288787066e-12      -1.079759698202e-14 
   83       2.908018359858e-10       6.814883378443e-14      -1.632937767875e-12       2.933152498257e-16       1.738748790944e-11       2.264623650888e-12      -1.095704309836e-14 
   84       2.943792654479e-10       7.016748488389e-14      -1.709613413750e-12       3.004651100512e-16       1.687556143938e-11       2.208819420186e-12      -1.106573106404e-14 
   85       2.979866813935e-10       7.219368893091e-14      -1.787247138265e-12       3.077032280887e-16       1.638198356514e-11       2.154833642316e-12      -1.112226507146e-14 
   86       3.016247774306e-10       7.422618737233e-14      -1.865809762019e-12       3.150296328317e-16       1.590672645002e-11       2.102672430914e-12      -1.112881704302e-14 
   87       3.052940386081e-10       7.626372252362e-14      -1.945272815710e-12       3.224443484105e-16       1.544954833039e-11       2.052319456209e-12      -1.108800897982e-14 
   88       3.089947302394e-10       7.830503900555e-14      -2.025608621297e-12       3.299473940451e-16       1.500998464712e-11       2.003734997026e-12      -1.100292815447e-14 
   89       3.127268867256e-10       8.034888518077e-14      -2.106790373150e-12       3.375387838986e-16       1.458733917687e-11       1.956854992798e-12      -1.087714230395e-14 
   90       3.164903003777e-10       8.239401459040e-14      -2.188792219213e-12       3.452185269302e-16       1.418067516346e-11       1.911590095573e-12      -1.071471482245e-14 
   91       3.202845102410e-10       8.443918739069e-14      -2.271589342153e-12       3.529866267485e-16       1.378880644920e-11       1.867824722023e-12      -1.052021995420e-14 
   92       3.241087909168e-10       8.648317178953e-14      -2.355158040523e-12       3.608430814646e-16       1.341028860625e-11       1.825416105452e-12      -1.029875798634e-14 
   93       3.279624099978e-10       8.852463553637e-14      -2.439467733532e-12       3.687880006561e-16       1.304376166843e-11       1.784230140878e-12      -1.005548238078e-14 
   94       3.318454689370e-10       9.056179860275e-14      -2.524455423583e-12       3.768219767011e-16       1.268905655432e-11       1.744257146251e-12      -9.794066816900e-15 
   95       3.357581685687e-10       9.259273067794e-14      -2.610047525078e-12       3.849457692815e-16       1.234623942731e-11       1.705511840002e-12      -9.518034609227e-15 
   96       3.397005443762e-10       9.461545638968e-14      -2.696167569263e-12       3.931601946891e-16       1.201527093414e-11       1.667997662272e-12      -9.231234604787e-15 
   97       3.436724590023e-10       9.662795523158e-14      -2.782736174523e-12       4.014661272867e-16       1.169600216258e-11       1.631706331978e-12      -8.937849676415e-15 
   98       3.476735947593e-10       9.862816149046e-14      -2.869671016677e-12       4.098645009685e-16       1.138817059919e-11       1.596617403866e-12      -8.642405216062e-15 
   99       3.517034461394e-10       1.006139641738e-13      -2.956886799263e-12       4.183563106210e-16       1.109139608697e-11       1.562697825582e-12      -8.349777628103e-15 
  100       3.557613123251e-10       1.025832069370e-13      -3.044295223842e-12       4.269426135839e-16       1.080517678310e-11       1.529901494723e-12      -8.065202822649e-15 
  101       3.598462896992e-10       1.045336880109e-13      -3.131804960283e-12       4.356245311103e-16       1.052888511666e-11       1.498168815903e-12      -7.794284708852e-15 
  102       3.639572643553e-10       1.064631601291e-13      -3.219321617058e-12       4.444032498281e-16       1.026176374628e-11       1.467426257813e-12      -7.543003688218e-15 
  103       3.680929046078e-10       1.083693304554e-13      -3.306747711538e-12       4.532800232001e-16       1.000292151794e-11       1.437585910283e-12      -7.317725147911e-15 
  104       3.722519450887e-10       1.102499691332e-13      -3.393989161074e-12       4.622560413882e-16       9.751535491287e-12       1.408565501160e-12      -7.123732582150e-15 
  105       3.764340988762e-10       1.121032517899e-13      -3.480975818873e-12       4.713320176765e-16       9.507496806370e-12       1.380352480495e-12      -6.960582989465e-15 
  106       3.806392551920e-10       1.139274633802e-13      -3.567643669751e-12       4.805085486431e-16       9.270844934293e-12       1.352947807733e-12      -6.826136970449e-15 
  107       3.848671945837e-10       1.157208948027e-13      -3.653928598513e-12       4.897862407823e-16       9.041567643207e-12       1.326346049459e-12      -6.717970445678e-15 
