# Matter power spectrum P(k) at redshift z=0
# for k=1.045e-05 to 35.1587 h/Mpc,
# number of wavenumbers equal to 582
#    1:k (h/Mpc)              2:P (Mpc/h)^3        
       1.045004358465e-05       5.246581358777e+01 
       2.333031646003e-05       1.136017128165e+02 
       3.625588232309e-05       1.735960512931e+02 
       4.926151484748e-05       2.331228490874e+02 
       6.238256282054e-05       2.925614265245e+02 
       7.565526530539e-05       3.521934871475e+02 
       8.911707687974e-05       4.122582834035e+02 
       1.028070072767e-04       4.729750957733e+02 
       1.167659797859e-04       5.345547389370e+02 
       1.310372128073e-04       5.972064632699e+02 
       1.456666289547e-04       6.611427118645e+02 
       1.607032960497e-04       7.265827915457e+02 
       1.761999041630e-04       7.937559775375e+02 
       1.922132824965e-04       8.629043363990e+02 
       2.088049592348e-04       9.342854039940e+02 
       2.260417664219e-04       1.008174835610e+03 
       2.439964902501e-04       1.084869036233e+03 
       2.627485646742e-04       1.164687825441e+03 
       2.823848027128e-04       1.247977081791e+03 
       3.030001548299e-04       1.335111355908e+03 
       3.246984770434e-04       1.426496346875e+03 
       3.475932824573e-04       1.522571124941e+03 
       3.718084384017e-04       1.623809947914e+03 
       3.974787570252e-04       1.730723415575e+03 
       4.247504100439e-04       1.843858666347e+03 
       4.537810789379e-04       1.963798272996e+03 
       4.847397315668e-04       2.091157361788e+03 
       5.178058974855e-04       2.226578461650e+03 
       5.531683013105e-04       2.370723612202e+03 
       5.910227121702e-04       2.524263155039e+03 
       6.315688849627e-04       2.687860929882e+03 
       6.750065137883e-04       2.862155658040e+03 
       7.215301959429e-04       3.047738767369e+03 
       7.713235180257e-04       3.245129380448e+03 
       8.245525173319e-04       3.454747699259e+03 
       8.813589235833e-04       3.676888682170e+03 
       9.418537183337e-04       3.911698365309e+03 
       1.006111625261e-03       4.159155273973e+03 
       1.074167130425e-03       4.419059419345e+03 
       1.146012510269e-03       4.691030449351e+03 
       1.221598126720e-03       4.974515749082e+03 
       1.300834972303e-03       5.268808118369e+03 
       1.383599172303e-03       5.573055392342e+03 
       1.469737934874e-03       5.886309102295e+03 
       1.559076324033e-03       6.207591562825e+03 
       1.651424225675e-03       6.535865132386e+03 
       1.746582964833e-03       6.870086019146e+03 
       1.844351177716e-03       7.209228678788e+03 
       1.944529704896e-03       7.552305410293e+03 
       2.046925420592e-03       7.898380610768e+03 
       2.151354028418e-03       8.246580853129e+03 
       2.257641930146e-03       8.596100510936e+03 
       2.365627314046e-03       8.946205248425e+03 
       2.475160621195e-03       9.296228674829e+03 
       2.586104540896e-03       9.645574134008e+03 
       2.698333668320e-03       9.993708047909e+03 
       2.811733934794e-03       1.034015682470e+04 
       2.926201898116e-03       1.068450682551e+04 
       3.041643959153e-03       1.102638815234e+04 
       3.157975553037e-03       1.136548041016e+04 
       3.275120348689e-03       1.170150705294e+04 
       3.393009479076e-03       1.203422401893e+04 
       3.511580816065e-03       1.236342417052e+04 
       3.630778297517e-03       1.268892666002e+04 
       3.750551309848e-03       1.301057834744e+04 
       3.870854126296e-03       1.332824814646e+04 
       3.991645399134e-03       1.364182510951e+04 
       4.112887702883e-03       1.395121902246e+04 
       4.234547124897e-03       1.425634932242e+04 
       4.356592899374e-03       1.455715606749e+04 
       4.478997080815e-03       1.485358860359e+04 
       4.601734253050e-03       1.514560892554e+04 
       4.724781270161e-03       1.543318256073e+04 
       4.848117025885e-03       1.571625714629e+04 
       4.971722248393e-03       1.599489983862e+04 
       5.095579317586e-03       1.626903902820e+04 
       5.219672102396e-03       1.653869190129e+04 
       5.343985815788e-03       1.680394394125e+04 
       5.468506885453e-03       1.706471508324e+04 
       5.593222838389e-03       1.732105229449e+04 
       5.718122197776e-03       1.757295378965e+04 
       5.843194390744e-03       1.781993809094e+04 
       5.968429665788e-03       1.806302453104e+04 
       6.093819018741e-03       1.830173860650e+04 
       6.219354126332e-03       1.853611588933e+04 
       6.345027286494e-03       1.876618878617e+04 
       6.470831364649e-03       1.899194686820e+04 
       6.596759745336e-03       1.921346234431e+04 
       6.722806288582e-03       1.943084228279e+04 
       6.848965290503e-03       1.964398518948e+04 
       6.975231447686e-03       1.985314402387e+04 
       7.101599824952e-03       2.005819908322e+04 
       7.228065826131e-03       2.025917792592e+04 
       7.354625167555e-03       2.045604942960e+04 
       7.481273853967e-03       2.064945930407e+04 
       7.608008156622e-03       2.083846745756e+04 
       7.734824593334e-03       2.102404973998e+04 
       7.861719910302e-03       2.120530477525e+04 
       7.988691065514e-03       2.138283395296e+04 
       8.115735213591e-03       2.155667355264e+04 
       8.242849691924e-03       2.172647514002e+04 
       8.370032007988e-03       2.189305842305e+04 
       8.497279827711e-03       2.205656948364e+04 
       8.624590964808e-03       2.221565733193e+04 
       8.751963370988e-03       2.237121152409e+04 
       8.879395126956e-03       2.252322068001e+04 
       9.006884434132e-03       2.267172613607e+04 
       9.134429607028e-03       2.281589179435e+04 
       9.262029066230e-03       2.295760078187e+04 
       9.389681331919e-03       2.309597971945e+04 
       9.517385017893e-03       2.323050510546e+04 
       9.645138826050e-03       2.336315743385e+04 
       9.772941541283e-03       2.349031952876e+04 
       9.900792026762e-03       2.361659588800e+04 
       1.002868921957e-02       2.373761844838e+04 
       1.015663212664e-02       2.385634102348e+04 
       1.028461982104e-02       2.397185401198e+04 
       1.041265143846e-02       2.408444770091e+04 
       1.054072617402e-02       2.419482433670e+04 
       1.066884327926e-02       2.429997454880e+04 
       1.079700205935e-02       2.440476557793e+04 
       1.092520187054e-02       2.450523557090e+04 
       1.105344211774e-02       2.460231986910e+04 
       1.118172225228e-02       2.469698304388e+04 
       1.131004176988e-02       2.478855756151e+04 
       1.143840020866e-02       2.487792531838e+04 
       1.156679714741e-02       2.496393064232e+04 
       1.169523220388e-02       2.504775795274e+04 
       1.182370503324e-02       2.512937189765e+04 
       1.195221532664e-02       2.520744055550e+04 
       1.208076280985e-02       2.528296748555e+04 
       1.220934724206e-02       2.535570706903e+04 
       1.233796841467e-02       2.542613237788e+04 
       1.246662615021e-02       2.549398802679e+04 
       1.259532030139e-02       2.555911301531e+04 
       1.272405075012e-02       2.562044657885e+04 
       1.285281740668e-02       2.568193432875e+04 
       1.298162020888e-02       2.573978895227e+04 
       1.311045912139e-02       2.579505052940e+04 
       1.323933413499e-02       2.584691037772e+04 
       1.336824526596e-02       2.589752883916e+04 
       1.349719255553e-02       2.594732630420e+04 
       1.362617606930e-02       2.599325388386e+04 
       1.375519589679e-02       2.603580967946e+04 
       1.388425215095e-02       2.607725561003e+04 
       1.401334496781e-02       2.611679803667e+04 
       1.414247450603e-02       2.615447364925e+04 
       1.427164094666e-02       2.619005957963e+04 
       1.440084449274e-02       2.622303179010e+04 
       1.453008536914e-02       2.625352879208e+04 
       1.465936382220e-02       2.628128274976e+04 
       1.478868011964e-02       2.630826245224e+04 
       1.491803455030e-02       2.633361168020e+04 
       1.504742742402e-02       2.635622251213e+04 
       1.517685907151e-02       2.637574426122e+04 
       1.530632984425e-02       2.639544522444e+04 
       1.543584011438e-02       2.641235370168e+04 
       1.556539027473e-02       2.642648570537e+04 
       1.569498073867e-02       2.644007707414e+04 
       1.582461194022e-02       2.645143312282e+04 
       1.595428433395e-02       2.646084000525e+04 
       1.608399839510e-02       2.646758740203e+04 
       1.621375461959e-02       2.647445976839e+04 
       1.634355352408e-02       2.647745832396e+04 
       1.647339564609e-02       2.647975949258e+04 
       1.660328154410e-02       2.648041045202e+04 
       1.673321179765e-02       2.647934557618e+04 
       1.686318700753e-02       2.647663545622e+04 
       1.699320779588e-02       2.647234041767e+04 
       1.712327480645e-02       2.646692265247e+04 
       1.725338870472e-02       2.645861032607e+04 
       1.738355017815e-02       2.644973616552e+04 
       1.751375993644e-02       2.643907143476e+04 
       1.764401871169e-02       2.642776827947e+04 
       1.777432725877e-02       2.641306384280e+04 
       1.790468635550e-02       2.639837539575e+04 
       1.803509680303e-02       2.638157367246e+04 
       1.816555942610e-02       2.636375615969e+04 
       1.829607507341e-02       2.634428501361e+04 
       1.842664461792e-02       2.632320850294e+04 
       1.855726895726e-02       2.630110741635e+04 
       1.868794901408e-02       2.627834951912e+04 
       1.881868573646e-02       2.625342924134e+04 
       1.894948009832e-02       2.622716062432e+04 
       1.908033309987e-02       2.619938770440e+04 
       1.921124576803e-02       2.617041742389e+04 
       1.934221915691e-02       2.614049094790e+04 
       1.947325434832e-02       2.610989875208e+04 
       1.960435245224e-02       2.607747857052e+04 
       1.973551460733e-02       2.604341244778e+04 
       1.986674198155e-02       2.600873510967e+04 
       1.999803577261e-02       2.597283855910e+04 
       2.012939720865e-02       2.593617825986e+04 
       2.026082754878e-02       2.589744577323e+04 
       2.039232808371e-02       2.585910570478e+04 
       2.052390013641e-02       2.581801427547e+04 
       2.065554506277e-02       2.577668724251e+04 
       2.078726425227e-02       2.573427137062e+04 
       2.091905912869e-02       2.569085081663e+04 
       2.105093115085e-02       2.564652857304e+04 
       2.118288181336e-02       2.560108289360e+04 
       2.131491264740e-02       2.555483460618e+04 
       2.144702522152e-02       2.550819762249e+04 
       2.157922114246e-02       2.545926819459e+04 
       2.171150205602e-02       2.541021023807e+04 
       2.184386964794e-02       2.536013909077e+04 
       2.197632564479e-02       2.530984072548e+04 
       2.210887181492e-02       2.525755505581e+04 
       2.224150996944e-02       2.520491763853e+04 
       2.237424196320e-02       2.515146526004e+04 
       2.250706969581e-02       2.509724900839e+04 
       2.263999511273e-02       2.504221125273e+04 
       2.277302020633e-02       2.498639602428e+04 
       2.290614701706e-02       2.492990353888e+04 
       2.303937763456e-02       2.487300395619e+04 
       2.317271419890e-02       2.481446581866e+04 
       2.330615890180e-02       2.475571415324e+04 
       2.343971398792e-02       2.469630754120e+04 
       2.357338175615e-02       2.463666045267e+04 
       2.370716456100e-02       2.457535563592e+04 
       2.384106481399e-02       2.451385657716e+04 
       2.397508498508e-02       2.445174763194e+04 
       2.410922760418e-02       2.438908720610e+04 
       2.424349526269e-02       2.432569140795e+04 
       2.437789061509e-02       2.426176035524e+04 
       2.451241638055e-02       2.419729542481e+04 
       2.464707534467e-02       2.413237481632e+04 
       2.478187036123e-02       2.406642187091e+04 
       2.491680435394e-02       2.400028355148e+04 
       2.505188031836e-02       2.393355195522e+04 
       2.518710132382e-02       2.386635442396e+04 
       2.532247051540e-02       2.379875510086e+04 
       2.545799111597e-02       2.373039493075e+04 
       2.559366642839e-02       2.366206553691e+04 
       2.572949983761e-02       2.359276339719e+04 
       2.586549481303e-02       2.352328148759e+04 
       2.600165491080e-02       2.345327226607e+04 
       2.613798377629e-02       2.338231578367e+04 
       2.627448514657e-02       2.331169722858e+04 
       2.641116285305e-02       2.324036703836e+04 
       2.654802082415e-02       2.316876925421e+04 
       2.668506308812e-02       2.309667250067e+04 
       2.682229377588e-02       2.302416165476e+04 
       2.695971712407e-02       2.295129052775e+04 
       2.709733747813e-02       2.287830519735e+04 
       2.723515929550e-02       2.280481694840e+04 
       2.737318714896e-02       2.273089800424e+04 
       2.751142573009e-02       2.265696023673e+04 
       2.764987985283e-02       2.258245650604e+04 
       2.778855445722e-02       2.250793513205e+04 
       2.792745461322e-02       2.243294778886e+04 
       2.806658552475e-02       2.235773124916e+04 
       2.820595253378e-02       2.228220717975e+04 
       2.834556112471e-02       2.220632762593e+04 
       2.848541692877e-02       2.213041842840e+04 
       2.862552572872e-02       2.205404448807e+04 
       2.876589346368e-02       2.197770601512e+04 
       2.890652623411e-02       2.190093038696e+04 
       2.904743030707e-02       2.182415110227e+04 
       2.918861212164e-02       2.174708259407e+04 
       2.933007829456e-02       2.167000522251e+04 
       2.947183562612e-02       2.159236503491e+04 
       2.961389110626e-02       2.151477595972e+04 
       2.975625192100e-02       2.143703974975e+04 
       2.989892545902e-02       2.135926689703e+04 
       3.004191931860e-02       2.128111382795e+04 
       3.018524131485e-02       2.120294039051e+04 
       3.032889948722e-02       2.112462703887e+04 
       3.047290210736e-02       2.104617810220e+04 
       3.061725768729e-02       2.096781945706e+04 
       3.076197498798e-02       2.088895589976e+04 
       3.090706302827e-02       2.081019212362e+04 
       3.105253109416e-02       2.073136271455e+04 
       3.119838874865e-02       2.065253220148e+04 
       3.134464584183e-02       2.057346003380e+04 
       3.149131252163e-02       2.049438194355e+04 
       3.163839924495e-02       2.041521961570e+04 
       3.178591678931e-02       2.033584766238e+04 
       3.193387626514e-02       2.025666603920e+04 
       3.208228912856e-02       2.017736134931e+04 
       3.223116719483e-02       2.009780698209e+04 
       3.238052265243e-02       2.001851461421e+04 
       3.253036807786e-02       1.993900183648e+04 
       3.268071645114e-02       1.985935239891e+04 
       3.283158117211e-02       1.977997697794e+04 
       3.298297607755e-02       1.970047698230e+04 
       3.313491545916e-02       1.962081618239e+04 
       3.328741408251e-02       1.954118895946e+04 
       3.344048720691e-02       1.946165063779e+04 
       3.359415060641e-02       1.938204647982e+04 
       3.374842059184e-02       1.930243064616e+04 
       3.390331403411e-02       1.922297904203e+04 
       3.405884838871e-02       1.914333427864e+04 
       3.421504172162e-02       1.906372977897e+04 
       3.437191273660e-02       1.898417216291e+04 
       3.452948080409e-02       1.890456529810e+04 
       3.468776599166e-02       1.882503678535e+04 
       3.484678909628e-02       1.874561153094e+04 
       3.500657167847e-02       1.866604616194e+04 
       3.516713609840e-02       1.858658590611e+04 
       3.532850555420e-02       1.850719065602e+04 
       3.549070412254e-02       1.842773267225e+04 
       3.565375680169e-02       1.834836719827e+04 
       3.581768955726e-02       1.826900844797e+04 
       3.598252937075e-02       1.818973983142e+04 
       3.614830429120e-02       1.811045869781e+04 
       3.631504349013e-02       1.803127827606e+04 
       3.648277732005e-02       1.795201157921e+04 
       3.665153737680e-02       1.787289859758e+04 
       3.682135656602e-02       1.779369154831e+04 
       3.699226917412e-02       1.771470329628e+04 
       3.716431094406e-02       1.763556791179e+04 
       3.733751915639e-02       1.755665137562e+04 
       3.751193271595e-02       1.747762986102e+04 
       3.768759224472e-02       1.739864621428e+04 
       3.786454018137e-02       1.731967010123e+04 
       3.804282088805e-02       1.724083739404e+04 
       3.822248076511e-02       1.716196845361e+04 
       3.840356837442e-02       1.708309448656e+04 
       3.858613457205e-02       1.700437805929e+04 
       3.877023265129e-02       1.692557741479e+04 
       3.895591849676e-02       1.684679937615e+04 
       3.914325075093e-02       1.676803663754e+04 
       3.933229099402e-02       1.668922792954e+04 
       3.952310393865e-02       1.661054767148e+04 
       3.971575764086e-02       1.653176817957e+04 
       3.991032372881e-02       1.645305092967e+04 
       4.010687765142e-02       1.637437108936e+04 
       4.030549894855e-02       1.629561438885e+04 
       4.050627154541e-02       1.621673604060e+04 
       4.070928407353e-02       1.613795475607e+04 
       4.091463022134e-02       1.605923314792e+04 
       4.112240911762e-02       1.598032257574e+04 
       4.133272575146e-02       1.590139422458e+04 
       4.154569143314e-02       1.582248299717e+04 
       4.176142430051e-02       1.574337033958e+04 
       4.198004987645e-02       1.566422812436e+04 
       4.220170168357e-02       1.558515202413e+04 
       4.242652192332e-02       1.550580895369e+04 
       4.265466222754e-02       1.542647965408e+04 
       4.288628449194e-02       1.534697877523e+04 
       4.312156180218e-02       1.526731990765e+04 
       4.336067946497e-02       1.518738531175e+04 
       4.360383615878e-02       1.510760027877e+04 
       4.385124522052e-02       1.502740544168e+04 
       4.410313608808e-02       1.494710710597e+04 
       4.435975592105e-02       1.486657805090e+04 
       4.462137142655e-02       1.478576774882e+04 
       4.488827092121e-02       1.470474434402e+04 
       4.516076666643e-02       1.462347068759e+04 
       4.543919752026e-02       1.454179199090e+04 
       4.572393195796e-02       1.445979666420e+04 
       4.601537152274e-02       1.437749560864e+04 
       4.631395478061e-02       1.429481900382e+04 
       4.662016186792e-02       1.421166324391e+04 
       4.693451973833e-02       1.412810266822e+04 
       4.725760823845e-02       1.404392051074e+04 
       4.759006716930e-02       1.395916229566e+04 
       4.793260452518e-02       1.387391329284e+04 
       4.828600614492e-02       1.378807558301e+04 
       4.865114706475e-02       1.370120959400e+04 
       4.902900493043e-02       1.361390337790e+04 
       4.942067591259e-02       1.352555119943e+04 
       4.982739367910e-02       1.343574648154e+04 
       5.025055211759e-02       1.334529674637e+04 
       5.069173267895e-02       1.325404717002e+04 
       5.115273743922e-02       1.316074193899e+04 
       5.163562926573e-02       1.306666524668e+04 
       5.214278083871e-02       1.297063935980e+04 
       5.267693473961e-02       1.287280093041e+04 
       5.324127738547e-02       1.277237630765e+04 
       5.383953027310e-02       1.267030663162e+04 
       5.447606277852e-02       1.256455024993e+04 
       5.515603156334e-02       1.245672216064e+04 
       5.588555227525e-02       1.234392361674e+04 
       5.667190925559e-02       1.222758933276e+04 
       5.752380746105e-02       1.210527892408e+04 
       5.845166594430e-02       1.197648034752e+04 
       5.946794059141e-02       1.183936953855e+04 
       6.058743937351e-02       1.169221334970e+04 
       6.182754674295e-02       1.153217705920e+04 
