# Matter power spectrum P(k) at redshift z=0
# for k=1.045e-05 to 35.1587 h/Mpc,
# number of wavenumbers equal to 582
#    1:k (h/Mpc)              2:P (Mpc/h)^3        
       1.045004358465e-05       5.246581358777e+01 
       2.333031646003e-05       1.136017128165e+02 
       3.625588232309e-05       1.735960512931e+02 
       4.926151484748e-05       2.331228490874e+02 
       6.238256282054e-05       2.925614265245e+02 
       7.565526530539e-05       3.521934871475e+02 
       8.911707687974e-05       4.122582834035e+02 
       1.028070072767e-04       4.729750957733e+02 
       1.167659797859e-04       5.345547389370e+02 
       1.310372128073e-04       5.972064632699e+02 
       1.456666289547e-04       6.611427118645e+02 
       1.607032960497e-04       7.264982494706e+02 
       1.761999041630e-04       7.936547353125e+02 
       1.922132824965e-04       8.627842965560e+02 
       2.088049592348e-04       9.341442433247e+02 
       2.260417664219e-04       1.008009968207e+03 
       2.439964902501e-04       1.084677570758e+03 
       2.627485646742e-04       1.164466515590e+03 
       2.823848027128e-04       1.247722268772e+03 
       3.030001548299e-04       1.334818901586e+03 
       3.246984770434e-04       1.426161556070e+03 
       3.475932824573e-04       1.522188655205e+03 
       3.718084384017e-04       1.623373704982e+03 
       3.974787570252e-04       1.730226432587e+03 
       4.247504100439e-04       1.843292964966e+03 
       4.537810789379e-04       1.963154704695e+03 
       4.847397315668e-04       2.090425427920e+03 
       5.178058974855e-04       2.225746111598e+03 
       5.531683013105e-04       2.369777019885e+03 
       5.910227121702e-04       2.523186475549e+03 
       6.315688849627e-04       2.686636039931e+03 
       6.750065137883e-04       2.860761886367e+03 
       7.215301959429e-04       3.046152623946e+03 
       7.713235180257e-04       3.243324296223e+03 
       8.245525173319e-04       3.452693790653e+03 
       8.813589235833e-04       3.674552556244e+03 
       9.418537183337e-04       3.909042981735e+03 
       1.006111625261e-03       4.156139878400e+03 
       1.074167130425e-03       4.415639558990e+03 
       1.146012510269e-03       4.687158076252e+03 
       1.221598126720e-03       4.970139409784e+03 
       1.300834972303e-03       5.263873221891e+03 
       1.383599172303e-03       5.567504558682e+03 
       1.469737934874e-03       5.880082542970e+03 
       1.559076324033e-03       6.200627448766e+03 
       1.651424225675e-03       6.528100034567e+03 
       1.746582964833e-03       6.861455318175e+03 
       1.844351177716e-03       7.199666954615e+03 
       1.944529704896e-03       7.541746802532e+03 
       2.046925420592e-03       7.886759144298e+03 
       2.151354028418e-03       8.233830725565e+03 
       2.257641930146e-03       8.582156342207e+03 
       2.365627314046e-03       8.931002291902e+03 
       2.475160621195e-03       9.279702999854e+03 
       2.586104540896e-03       9.627662771200e+03 
       2.698333668320e-03       9.974349113100e+03 
       2.811733934794e-03       1.031928961754e+04 
       2.926201898116e-03       1.066207189796e+04 
       3.041643959153e-03       1.100232738372e+04 
       3.157975553037e-03       1.133973704614e+04 
       3.275120348689e-03       1.167402573357e+04 
       3.393009479076e-03       1.200495081322e+04 
       3.511580816065e-03       1.233230658275e+04 
       3.630778297517e-03       1.265591364637e+04 
       3.750551309848e-03       1.297562031514e+04 
       3.870854126296e-03       1.329129695541e+04 
       3.991645399134e-03       1.360283406828e+04 
       4.112887702883e-03       1.391014287251e+04 
       4.234547124897e-03       1.421314424662e+04 
       4.356592899374e-03       1.451177965820e+04 
       4.478997080815e-03       1.480599985829e+04 
       4.601734253050e-03       1.509576822617e+04 
       4.724781270161e-03       1.538105167863e+04 
       4.848117025885e-03       1.566179932178e+04 
       4.971722248393e-03       1.593807936371e+04 
       5.095579317586e-03       1.620982174664e+04 
       5.219672102396e-03       1.647704489429e+04 
       5.343985815788e-03       1.673983525323e+04 
       5.468506885453e-03       1.699811436054e+04 
       5.593222838389e-03       1.725193029120e+04 
       5.718122197776e-03       1.750128255727e+04 
       5.843194390744e-03       1.774569305028e+04 
       5.968429665788e-03       1.798617803468e+04 
       6.093819018741e-03       1.822226628631e+04 
       6.219354126332e-03       1.845399448932e+04 
       6.345027286494e-03       1.868139616465e+04 
       6.470831364649e-03       1.890446219071e+04 
       6.596759745336e-03       1.912326568520e+04 
       6.722806288582e-03       1.933791442560e+04 
       6.848965290503e-03       1.954830864183e+04 
       6.975231447686e-03       1.975470123003e+04 
       7.101599824952e-03       1.995697428357e+04 
       7.228065826131e-03       2.015515641571e+04 
       7.354625167555e-03       2.034921786698e+04 
       7.481273853967e-03       2.053980198506e+04 
       7.608008156622e-03       2.072597497742e+04 
       7.734824593334e-03       2.090870840951e+04 
       7.861719910302e-03       2.108710714385e+04 
       7.988691065514e-03       2.126177028900e+04 
       8.115735213591e-03       2.143273500164e+04 
       8.242849691924e-03       2.159965604871e+04 
       8.370032007988e-03       2.176334926046e+04 
       8.497279827711e-03       2.192396075518e+04 
       8.624590964808e-03       2.208014903962e+04 
       8.751963370988e-03       2.223279921898e+04 
       8.879395126956e-03       2.238190102464e+04 
       9.006884434132e-03       2.252749655830e+04 
       9.134429607028e-03       2.266875637328e+04 
       9.262029066230e-03       2.280755201402e+04 
       9.389681331919e-03       2.294301687257e+04 
       9.517385017893e-03       2.307463209054e+04 
       9.645138826050e-03       2.320436522775e+04 
       9.772941541283e-03       2.332862568325e+04 
       9.900792026762e-03       2.345198599976e+04 
       1.002868921957e-02       2.357011061888e+04 
       1.015663212664e-02       2.368593280517e+04 
       1.028461982104e-02       2.379855051786e+04 
       1.041265143846e-02       2.390825275938e+04 
       1.054072617402e-02       2.401573719391e+04 
       1.066884327926e-02       2.411801868800e+04 
       1.079700205935e-02       2.421992739149e+04 
       1.092520187054e-02       2.431753336459e+04 
       1.105344211774e-02       2.441176559976e+04 
       1.118172225228e-02       2.450358173458e+04 
       1.131004176988e-02       2.459232048262e+04 
       1.143840020866e-02       2.467885723868e+04 
       1.156679714741e-02       2.476204677695e+04 
       1.169523220388e-02       2.484306433434e+04 
       1.182370503324e-02       2.492187550477e+04 
       1.195221532664e-02       2.499716067072e+04 
       1.208076280985e-02       2.506991552966e+04 
       1.220934724206e-02       2.513989739277e+04 
       1.233796841467e-02       2.520757586440e+04 
       1.246662615021e-02       2.527269855820e+04 
       1.259532030139e-02       2.533510669543e+04 
       1.272405075012e-02       2.539375015545e+04 
       1.285281740668e-02       2.545253857843e+04 
       1.298162020888e-02       2.550772054357e+04 
       1.311045912139e-02       2.556032720158e+04 
       1.323933413499e-02       2.560955842017e+04 
       1.336824526596e-02       2.565755443529e+04 
       1.349719255553e-02       2.570473187054e+04 
       1.362617606930e-02       2.574807236764e+04 
       1.375519589679e-02       2.578807011524e+04 
       1.388425215095e-02       2.582696510596e+04 
       1.401334496781e-02       2.586397212570e+04 
       1.414247450603e-02       2.589912802955e+04 
       1.427164094666e-02       2.593221279420e+04 
       1.440084449274e-02       2.596270845828e+04 
       1.453008536914e-02       2.599075280025e+04 
       1.465936382220e-02       2.601608152681e+04 
       1.478868011964e-02       2.604064304914e+04 
       1.491803455030e-02       2.606359064971e+04 
       1.504742742402e-02       2.608382896046e+04 
       1.517685907151e-02       2.610101190841e+04 
       1.530632984425e-02       2.611837238228e+04 
       1.543584011438e-02       2.613297188453e+04 
       1.556539027473e-02       2.614482701148e+04 
       1.569498073867e-02       2.615614896362e+04 
       1.582461194022e-02       2.616526261818e+04 
       1.595428433395e-02       2.617245143959e+04 
       1.608399839510e-02       2.617701389908e+04 
       1.621375461959e-02       2.618170256150e+04 
       1.634355352408e-02       2.618256581438e+04 
       1.647339564609e-02       2.618274335906e+04 
       1.660328154410e-02       2.618129398205e+04 
       1.673321179765e-02       2.617815329717e+04 
       1.686318700753e-02       2.617339150197e+04 
       1.699320779588e-02       2.616706862798e+04 
       1.712327480645e-02       2.615964159753e+04 
       1.725338870472e-02       2.614936087401e+04 
       1.738355017815e-02       2.613853079288e+04 
       1.751375993644e-02       2.612593823971e+04 
       1.764401871169e-02       2.611272123370e+04 
       1.777432725877e-02       2.609615234744e+04 
       1.790468635550e-02       2.607960584142e+04 
       1.803509680303e-02       2.606097999092e+04 
       1.816555942610e-02       2.604135854689e+04 
       1.829607507341e-02       2.602011229317e+04 
       1.842664461792e-02       2.599728929349e+04 
       1.855726895726e-02       2.597346304206e+04 
       1.868794901408e-02       2.594899665553e+04 
       1.881868573646e-02       2.592240498638e+04 
       1.894948009832e-02       2.589449161405e+04 
       1.908033309987e-02       2.586510304620e+04 
       1.921124576803e-02       2.583454240297e+04 
       1.934221915691e-02       2.580304782830e+04 
       1.947325434832e-02       2.577090600876e+04 
       1.960435245224e-02       2.573697107643e+04 
       1.973551460733e-02       2.570142298182e+04 
       1.986674198155e-02       2.566528224037e+04 
       1.999803577261e-02       2.562794965118e+04 
       2.012939720865e-02       2.558987446707e+04 
       2.026082754878e-02       2.554976726530e+04 
       2.039232808371e-02       2.551005749607e+04 
       2.052390013641e-02       2.546764704392e+04 
       2.065554506277e-02       2.542501551440e+04 
       2.078726425227e-02       2.538132228883e+04 
       2.091905912869e-02       2.533665054263e+04 
       2.105093115085e-02       2.529110197690e+04 
       2.118288181336e-02       2.524445838338e+04 
       2.131491264740e-02       2.519703602756e+04 
       2.144702522152e-02       2.514924273972e+04 
       2.157922114246e-02       2.509920385676e+04 
       2.171150205602e-02       2.504905071124e+04 
       2.184386964794e-02       2.499791228286e+04 
       2.197632564479e-02       2.494656261249e+04 
       2.210887181492e-02       2.489326905613e+04 
       2.224150996944e-02       2.483964205215e+04 
       2.237424196320e-02       2.478522574625e+04 
       2.250706969581e-02       2.473007060406e+04 
       2.263999511273e-02       2.467412008338e+04 
       2.277302020633e-02       2.461741769750e+04 
       2.290614701706e-02       2.456006222609e+04 
       2.303937763456e-02       2.450231961383e+04 
       2.317271419890e-02       2.444297847572e+04 
       2.330615890180e-02       2.438344097245e+04 
       2.343971398792e-02       2.432327295576e+04 
       2.357338175615e-02       2.426288220443e+04 
       2.370716456100e-02       2.420087498130e+04 
       2.384106481399e-02       2.413869079588e+04 
       2.397508498508e-02       2.407592098209e+04 
       2.410922760418e-02       2.401262309057e+04 
       2.424349526269e-02       2.394861644846e+04 
       2.437789061509e-02       2.388409793258e+04 
       2.451241638055e-02       2.381906900305e+04 
       2.464707534467e-02       2.375360662489e+04 
       2.478187036123e-02       2.368714415855e+04 
       2.491680435394e-02       2.362051413601e+04 
       2.505188031836e-02       2.355331576642e+04 
       2.518710132382e-02       2.348567428544e+04 
       2.532247051540e-02       2.341765279725e+04 
       2.545799111597e-02       2.334889864983e+04 
       2.559366642839e-02       2.328018959917e+04 
       2.572949983761e-02       2.321053994959e+04 
       2.586549481303e-02       2.314072870721e+04 
       2.600165491080e-02       2.307041458807e+04 
       2.613798377629e-02       2.299918532150e+04 
       2.627448514657e-02       2.292830300097e+04 
       2.641116285305e-02       2.285673706301e+04 
       2.654802082415e-02       2.278492357106e+04 
       2.668506308812e-02       2.271263543587e+04 
       2.682229377588e-02       2.263995605975e+04 
       2.695971712407e-02       2.256693832711e+04 
       2.709733747813e-02       2.249382379128e+04 
       2.723515929550e-02       2.242023100289e+04 
       2.737318714896e-02       2.234623092068e+04 
       2.751142573009e-02       2.227222772106e+04 
       2.764987985283e-02       2.219768460295e+04 
       2.778855445722e-02       2.212313956015e+04 
       2.792745461322e-02       2.204815280623e+04 
       2.806658552475e-02       2.197295665227e+04 
       2.820595253378e-02       2.189747429890e+04 
       2.834556112471e-02       2.182165876283e+04 
       2.848541692877e-02       2.174582960670e+04 
       2.862552572872e-02       2.166956019874e+04 
       2.876589346368e-02       2.159334102690e+04 
       2.890652623411e-02       2.151670872970e+04 
       2.904743030707e-02       2.144008831343e+04 
       2.918861212164e-02       2.136319984705e+04 
       2.933007829456e-02       2.128631814272e+04 
       2.947183562612e-02       2.120890030223e+04 
       2.961389110626e-02       2.113154802558e+04 
       2.975625192100e-02       2.105406702046e+04 
       2.989892545902e-02       2.097656554514e+04 
       3.004191931860e-02       2.089870699095e+04 
       3.018524131485e-02       2.082084391980e+04 
       3.032889948722e-02       2.074285921038e+04 
       3.047290210736e-02       2.066475710603e+04 
       3.061725768729e-02       2.058675881727e+04 
       3.076197498798e-02       2.050828143780e+04 
       3.090706302827e-02       2.042991715767e+04 
       3.105253109416e-02       2.035150396732e+04 
       3.119838874865e-02       2.027310502664e+04 
       3.134464584183e-02       2.019448482640e+04 
       3.149131252163e-02       2.011587413987e+04 
       3.163839924495e-02       2.003719628804e+04 
       3.178591678931e-02       1.995832854951e+04 
       3.193387626514e-02       1.987966233875e+04 
       3.208228912856e-02       1.980089092014e+04 
       3.223116719483e-02       1.972189041813e+04 
       3.238052265243e-02       1.964316145901e+04 
       3.253036807786e-02       1.956423203217e+04 
       3.268071645114e-02       1.948518408778e+04 
       3.283158117211e-02       1.940641930974e+04 
       3.298297607755e-02       1.932754778101e+04 
       3.313491545916e-02       1.924853407821e+04 
       3.328741408251e-02       1.916956828910e+04 
       3.344048720691e-02       1.909070447395e+04 
       3.359415060641e-02       1.901179130561e+04 
       3.374842059184e-02       1.893288172384e+04 
       3.390331403411e-02       1.885414765483e+04 
       3.405884838871e-02       1.877523972114e+04 
       3.421504172162e-02       1.869638608003e+04 
       3.437191273660e-02       1.861759317001e+04 
       3.452948080409e-02       1.853876702396e+04 
       3.468776599166e-02       1.846003230970e+04 
       3.484678909628e-02       1.838141332186e+04 
       3.500657167847e-02       1.830267226847e+04 
       3.516713609840e-02       1.822404870876e+04 
       3.532850555420e-02       1.814550342673e+04 
       3.549070412254e-02       1.806691163760e+04 
       3.565375680169e-02       1.798842494621e+04 
       3.581768955726e-02       1.790995955049e+04 
       3.598252937075e-02       1.783159687653e+04 
       3.614830429120e-02       1.775323667576e+04 
       3.631504349013e-02       1.767498947593e+04 
       3.648277732005e-02       1.759667272621e+04 
       3.665153737680e-02       1.751852067686e+04 
       3.682135656602e-02       1.744029146741e+04 
       3.699226917412e-02       1.736229042339e+04 
       3.716431094406e-02       1.728416043433e+04 
       3.733751915639e-02       1.720625860955e+04 
       3.751193271595e-02       1.712826898219e+04 
       3.768759224472e-02       1.705033092799e+04 
       3.786454018137e-02       1.697241485737e+04 
       3.804282088805e-02       1.689465329181e+04 
       3.822248076511e-02       1.681687102264e+04 
       3.840356837442e-02       1.673909850465e+04 
       3.858613457205e-02       1.666149425957e+04 
       3.877023265129e-02       1.658382257404e+04 
       3.895591849676e-02       1.650618762854e+04 
       3.914325075093e-02       1.642858232341e+04 
       3.933229099402e-02       1.635094697143e+04 
       3.952310393865e-02       1.627345159715e+04 
       3.971575764086e-02       1.619587434200e+04 
       3.991032372881e-02       1.611837260992e+04 
       4.010687765142e-02       1.604092223948e+04 
       4.030549894855e-02       1.596341196023e+04 
       4.050627154541e-02       1.588579823066e+04 
       4.070928407353e-02       1.580829416453e+04 
       4.091463022134e-02       1.573086339715e+04 
       4.112240911762e-02       1.565326388171e+04 
       4.133272575146e-02       1.557566243565e+04 
       4.154569143314e-02       1.549809314091e+04 
       4.176142430051e-02       1.542034335323e+04 
       4.198004987645e-02       1.534258054020e+04 
       4.220170168357e-02       1.526489795062e+04 
       4.242652192332e-02       1.518697157616e+04 
       4.265466222754e-02       1.510907481986e+04 
       4.288628449194e-02       1.503102752163e+04 
       4.312156180218e-02       1.495284314560e+04 
       4.336067946497e-02       1.487440742722e+04 
       4.360383615878e-02       1.479613431081e+04 
       4.385124522052e-02       1.471748003642e+04 
       4.410313608808e-02       1.463874285357e+04 
       4.435975592105e-02       1.455979941559e+04 
       4.462137142655e-02       1.448060102161e+04 
       4.488827092121e-02       1.440121438137e+04 
       4.516076666643e-02       1.432160388262e+04 
       4.543919752026e-02       1.424161966009e+04 
       4.572393195796e-02       1.416134828064e+04 
       4.601537152274e-02       1.408080102943e+04 
       4.631395478061e-02       1.399991084424e+04 
       4.662016186792e-02       1.391857796378e+04 
       4.693451973833e-02       1.383687558523e+04 
       4.725760823845e-02       1.375459430618e+04 
       4.759006716930e-02       1.367177961934e+04 
       4.793260452518e-02       1.358851572655e+04 
       4.828600614492e-02       1.350470914787e+04 
       4.865114706475e-02       1.341993508261e+04 
       4.902900493043e-02       1.333476638337e+04 
       4.942067591259e-02       1.324861761920e+04 
       4.982739367910e-02       1.316109723627e+04 
       5.025055211759e-02       1.307299194303e+04 
       5.069173267895e-02       1.298415519816e+04 
       5.115273743922e-02       1.289337355750e+04 
       5.163562926573e-02       1.280189764088e+04 
       5.214278083871e-02       1.270859170553e+04 
       5.267693473961e-02       1.261359577894e+04 
       5.324127738547e-02       1.251616907931e+04 
       5.383953027310e-02       1.241723459944e+04 
       5.447606277852e-02       1.231482738024e+04 
       5.515603156334e-02       1.221052855792e+04 
       5.588555227525e-02       1.210155057471e+04 
       5.667190925559e-02       1.198930872834e+04 
       5.752380746105e-02       1.187147195184e+04 
       5.845166594430e-02       1.174758557338e+04 
       5.946794059141e-02       1.161593593773e+04 
       6.058743937351e-02       1.147491203810e+04 
       6.182754674295e-02       1.132185481767e+04 
